"cardiac"
83
161
238
312
387
461
536
612
687
763
841
914
983
1053
1127
1206
1290
1374
1460
1548
1636
1715
1791
1863
1932
1997
2061
2132
2210
2288
2366
2448
2531
2611
2688
2763
2838
2910
2983
3060
3142
3222
3297
3373
3451
3527
3603
3679
3757
3832
3905
3981
4057
4134
4210
4289
4372
4455
4534
4613
4693
4770
4844
4920
4997
5079
5160
5240
5320
5402
5482
5564
5646
5729
5810
5891
5975
6059
6135
6211
6286
6364
6445
6523
6604
6689
6775
6858
6939
7022
7103
7181
7257
7335
7416
7495
7574
7654
7735
7812
7888
7965
8045
8124
8203
8284
8365
8443
8519
8596
8675
8752
8830
8908
8990
9070
9149
9228
9306
9381
9458
9538
9619
9696
9773
9853
9931
10008
10085
10164
10241
10316
10390
10465
10541
10615
10691
10770
10851
10928
11008
11089
11167
11242
11315
11391
11468
11544
11620
11701
11781
11858
11935
12012
12089
12164
12243
12325
12409
12489
12566
12641
12720
12797
12872
12946
13026
13107
13185
13262
13341
13423
13504
13583
13660
13740
13780
13818
13893
13965
14040
14115
14193
14273
14355
14434
14508
14581
14660
14737
14813
14881
14945
15011
15112
15199
15281
15360
15433
15497
15563
15637
15717
15800
15882
15965
16050
16136
16222
16308
16393
16478
16565
16654
16738
16821
16907
16999
17092
17183
17266
17348
17429
17512
17594
17672
17753
17840
17940
18031
18118
18202
18286
18366
18444
18519
18596
18676
18752
18833
18920
19009
19095
19172
19249
19327
19409
19489
19568
19649
19733
19819
19901
19982
20061
20142
20221
20299
20355
20460
20539
20615
20691
20768
20847
20923
20996
21072
21151
21231
21309
21385
21461
21541
21618
21696
21774
21855
21935
22012
22092
22172
22250
22325
22402
22482
22564
22643
22723
22803
22884
22963
23042
23122
23208
23290
23367
23444
23527
23613
23694
23772
23850
23928
24005
24082
24161
24241
24322
24401
24478
24555
24633
24708
24782
24858
24937
25018
25098
25172
25243
25316
25386
25455
25524
25595
25670
25741
25812
25884
25962
26040
26116
26194
26274
26352
26424
26493
26566
26644
26725
26813
26907
26998
27084
27170
27254
27333
27410
27489
27568
27647
27729
27814
27901
27982
28061
28140
28221
28301
28382
28460
28532
28597
28661
28732
28810
28893
28983
29079
29164
29247
29330
29412
29489
29568
29648
29732
29811
29891
29976
30063
30143
30223
30304
30386
30466
30547
30629
30711
30789
30864
30938
31015
31091
31163
31236
31313
31392
31467
31540
31615
31692
31766
31837
31909
31985
32065
32142
32221
32301
32383
32465
32544
32625
32703
32778
32851
32925
33003
33086
33165
33244
33322
33402
33481
33558
33635
33715
33795
33871
33950
34033
34117
34199
34275
34349
34420
34492
34566
34644
34721
34796
34870
34942
35011
35076
35144
35218
35290
35362
35436
35515
35594
35668
35741
35815
35895
35974
36050
36125
36205
36289
36374
36452
36530
36608
36688
36769
36844
36921
37000
37087
37176
37261
37340
37420
37502
37586
37669
37748
37829
37911
37996
38078
38154
38231
38310
38393
38478
38559
38643
38728
38814
38898
38977
39057
39138
39221
39302
39380
39460
39544
39630
39711
39789
39863
39939
40012
40081
40146
40214
40316
40403
40485
40566
40648
40722
40790
40864
40943
41027
41114
41193
41270
41349
41431
41514
41592
41668
41747
41826
41907
41987
42061
42136
42214
42293
42373
42454
42533
42611
42691
42772
42852
42927
43004
43081
43162
43242
43321
43397
43477
43558
43641
43720
43793
43867
43942
44021
44096
44169
44244
44323
44399
44472
44543
44615
44692
44770
44844
44916
44990
45066
45146
45223
45297
45373
45449
45528
45604
45678
45751
45827
45905
45981
46054
46131
46210
46289
46367
46443
46530
46636
46727
46812
46891
46968
47045
47121
47200
47283
47369
47447
47524
47601
47684
47769
47854
47939
48023
48100
48173
48258
48352
48439
48519
48596
48675
48753
48829
48907
48986
49064
49138
49212
49289
49364
49437
49510
49581
49654
49725
49793
49862
49930
50000
50073
50145
50215
50288
50363
50439
50512
50582
50655
50732
50810
50885
50960
51036
51113
51187
51260
51336
51413
51487
51560
51633
51705
51779
51853
51924
51996
52071
52147
52220
52291
52364
52436
52508
52579
52649
52723
52795
52868
52943
53018
53091
53161
53231
53307
53383
53459
53530
53599
53664
53727
53792
53860
53929
53997
54067
54138
54206
54274
54346
54423
54501
54574
54647
54721
54796
54871
54945
55020
55098
55177
55254
55331
55410
55488
55563
55637
55712
55787
55860
55932
56002
56081
56169
56264
56350
56429
56507
56585
56663
56741
56817
56896
56977
57059
57137
57211
57284
57361
57444
57527
57603
57677
57750
57827
57905
57982
58058
58137
58218
58297
58373
58449
58529
58606
58680
58753
58827
58905
58982
59054
59130
59208
59289
59368
59446
59524
59605
59684
59760
59836
59910
59985
60058
60131
60207
60285
60361
60436
60513
60590
60666
60742
60815
60885
60954
61021
61087
61153
61227
61303
61377
61450
61529
61614
61700
61781
61859
61934
62009
62081
62154
62228
62304
62379
62457
62542
62627
62708
62787
62867
62948
63025
63101
63180
63264
63346
63425
63505
63585
63665
63742
63819
63896
63974
64050
64124
64198
64271
64344
64418
64496
64578
64666
64750
64827
64900
64972
65042
65110
65178
65245
65310
65374
65450
65527
65606
65688
65774
65856
65933
66010
66091
66170
66246
66324
66405
66492
66576
66657
66737
66819
66897
66976
67055
67138
67222
67302
67379
67457
67540
67621
67701
67781
67863
67944
68020
68094
68166
68241
68320
68397
68476
68557
68639
68722
68800
68875
68949
69026
69103
69178
69256
69337
69420
69501
69581
69659
69737
69810
69881
69956
70033
70113
70191
70264
70336
70411
70488
70562
70633
70707
70784
70861
70933
71005
71077
71151
71225
71295
71367
71441
71514
71585
71654
71724
71798
71871
71941
72010
72082
72158
72231
72303
72376
72452
72527
72600
72674
72752
72831
72908
72983
73058
73136
73214
73290
73364
73440
73522
73605
73686
73772
73858
73938
74015
74094
74178
74261
74342
74430
74521
74605
74686
74769
74852
74931
75009
75087
75167
75244
75319
75399
75480
75561
75638
75712
75785
75861
75937
76011
76085
76162
76238
76313
76387
76461
76537
76609
76680
76753
76830
76905
76978
77052
77126
77201
77273
77343
77415
77490
77565
77638
77711
77786
77860
77932
78005
78078
78149
78219
78289
78360
78426
78490
78553
78615
78677
78746
78819
78887
78957
79032
79108
79180
79248
79318
79392
79465
79538
79611
79685
79754
79822
79890
79961
80035
80106
80177
80251
80327
80401
80473
80546
80621
80694
80763
80833
80904
80978
81048
81119
81191
81268
81343
81416
81490
81566
81642
81715
81788
81864
81936
82008
82083
82159
82234
82307
82381
82452
82523
82594
82664
82735
82807
82876
82942
83007
83072
83141
83213
83284
83352
83422
83495
83569
83643
83714
83784
83854
83928
84002
84074
84143
84208
84272
84339
84409
84482
84553
84625
84699
84775
84853
84932
85010
85089
85167
85246
85324
85403
85483
85564
85645
85723
85798
85875
85951
86025
86105
86187
86273
86356
86436
86515
86592
86666
86741
86818
86896
86981
87072
87158
87242
87326
87409
87488
87564
87642
87723
87805
87888
87967
88046
88127
88209
88290
88369
88444
88520
88602
88686
88764
88838
88914
88990
89071
89157
89241
89325
89409
89494
89577
89661
89748
89835
89921
90000
90078
90160
90252
90341
90428
90515
90598
90677
90753
90831
90915
91002
91085
91164
91246
91331
91413
91489
91566
91646
91726
91802
91878
91958
92037
92113
92190
92268
92349
92428
92505
92584
92663
92738
92811
92888
92965
93037
93109
93182
93253
93331
93405
93478
93551
93625
93705
93782
93854
93928
94001
94076
94150
94222
94294
94369
94447
94523
94597
94670
94748
94823
94891
94956
95021
95088
95160
95233
95301
95365
95429
95501
95579
95653
95719
95783
95848
95916
95984
96050
96116
96184
96256
96330
96403
96475
96546
96623
96699
96740
96772
96844
96917
96991
97063
97133
97169
97204
97278
97355
97407
97495
97563
97608
97644
97679
97716
97752
97790
97812
97865
97940
98013
98088
98159
98232
98309
98350
98382
98452
98523
98593
98666
98734
98800
98867
98933
99001
99070
99142
99211
99281
99353
99423
99493
99560
99627
99697
99772
99845
99916
99987
100061
100135
100208
100280
100351
100419
100484
100546
100607
100670
100738
100807
100882
100965
101057
101145
101223
101300
101377
101455
101527
101599
101674
101752
101834
101914
101992
102071
102152
102234
102312
102389
102468
102548
102627
102702
102779
102858
102939
103018
103097
103179
103260
103341
103420
103496
103570
103643
103722
103799
103873
103950
104029
104106
104183
104261
104338
104415
104488
104561
104636
104713
104791
104868
104945
105021
105098
105176
105253
105328
105405
105483
105562
105640
105714
105790
105871
105952
106029
106105
106182
106261
106338
106410
106481
106552
106627
106700
106770
106841
106920
106999
107074
107145
107219
107295
107368
107442
107518
107596
107675
107751
107827
107902
107979
108052
108124
108197
108273
108351
108426
108501
108579
108660
108742
108820
108896
108971
109046
109119
109194
109268
109345
109426
109505
109585
109666
109743
109819
109896
109973
110050
110123
110191
110257
110318
110383
110449
110522
110601
110677
110749
110817
110882
110945
111007
111072
111140
111212
111289
111369
111448
111528
111607
111683
111758
111836
111916
111999
112084
112166
112245
112325
112404
112486
112566
112646
112725
112803
112882
112962
113043
113122
113201
113281
113360
113439
113517
113591
113664
113741
113814
113889
113964
114040
114121
114201
114277
114353
114432
114509
114585
114658
114733
114809
114883
114956
115030
115110
115194
115273
115350
115426
115505
115581
115658
115734
115810
115883
115953
116022
116095
116173
116251
116328
116404
116483
116562
116640
116720
116799
116878
116955
117032
117108
117186
117264
117342
117420
117501
117577
117646
117710
117775
117852
117935
118016
118091
118161
118227
118290
118356
118428
118506
118584
118663
118741
118817
118892
118968
119046
119124
119199
119274
119349
119426
119504
119582
119655
119727
119803
119883
119966
120051
120133
120210
120287
120365
120445
120525
120604
120678
120752
120828
120908
120989
121070
121148
121223
121297
121373
121451
121532
121610
121685
121763
121842
121920
121997
122070
122146
122221
122299
122375
122451
122527
122604
122679
122751
122822
122894
122967
123040
123110
123180
123252
123326
123398
123467
123535
123608
123685
123760
123833
123908
123985
124066
124142
124216
124291
124368
124448
124526
