"cardiac"
102
200
298
404
507
605
697
789
872
966
1073
1170
1269
1372
1467
1547
1631
1736
1835
1925
2026
2128
2224
2315
2399
2477
2564
2665
2758
2853
2953
3042
3130
3222
3313
3408
3511
3609
3704
3801
3894
3987
4087
4180
4275
4373
4463
4560
4661
4760
4860
4952
5038
5129
5227
5319
5416
5512
5599
5686
5775
5859
5943
6032
6118
6212
6306
6388
6466
6548
6626
6707
6809
6897
6982
7076
7164
7247
7344
7431
7517
7616
7709
7792
7881
7972
8059
8162
8265
8357
8452
8543
8630
8728
8825
8916
9011
9103
9191
9290
9385
9468
9563
9602
9658
9745
9840
9939
10029
10127
10223
10311
10402
10497
10584
10679
10771
10859
10945
11030
11111
11194
11284
11367
11448
11533
11619
11704
11797
11836
11890
11974
12059
12147
12228
12306
12388
12472
12557
12654
12745
12834
12929
13017
13101
13190
13279
13374
13412
13468
13553
13641
13749
13847
13942
14041
14134
14229
14325
14417
14506
14604
14697
14786
14875
14914
14965
15049
15139
15233
15323
15409
15502
15589
15673
15716
15766
15858
15951
16043
16129
16215
16282
16335
16395
16482
16573
16609
16664
16753
16837
16896
16942
17029
17120
17162
17206
17287
17382
17420
17476
17563
17654
17690
17754
17848
17948
17985
18044
18130
18225
18264
18324
18419
18517
18556
18618
18710
18806
18847
18904
18991
19085
19182
19270
19368
19465
19551
19634
19726
19812
19893
19981
20020
20065
20144
20224
20318
20405
20502
20540
20592
20673
20751
20843
20933
21026
21131
21224
21316
21358
21410
21496
21582
21677
21771
21870
21974
22067
22156
22244
22330
22411
22507
22601
22692
22782
22819
22871
22950
23031
23121
23201
23284
23380
23468
23548
23630
23712
23794
23874
23912
23966
24049
24132
24172
24206
24247
24312
24401
24438
24493
24574
24658
24758
24808
24858
24953
25047
25140
25223
25303
25391
25479
25575
25673
25765
25857
25947
26028
26106
26190
26228
26279
26367
26461
26497
26560
26646
26732
26770
26822
26912
27010
27114
27208
27294
27378
27465
27552
27660
27705
27765
27856
27945
28037
28119
28205
28303
28385
28470
28560
28644
28731
28823
28860
28916
29001
29081
29166
29205
29245
29321
29403
29443
29492
29577
29666
29750
29791
29832
29911
29999
30039
30087
30168
30264
30299
30356
30443
30537
30632
30673
30725
30812
30909
31005
31093
31187
31279
31370
31466
31515
31559
31641
31720
31807
31896
32000
32102
32193
32282
32323
32374
32461
32546
32645
32683
32740
32829
32919
32967
33007
33086
33170
33207
33265
33352
33436
33522
33596
33691
33792
33892
33931
33987
34072
34156
34247
34288
34341
34426
34513
34619
34657
34724
34821
34843
34924
35031
35130
35226
35321
35360
35416
35508
35606
35706
35746
35803
35894
35996
36102
36198
36293
36400
36506
36600
36698
36797
36888
36971
37059
37150
37241
37340
37444
37544
37637
37727
37774
37892
37969
38032
38080
38139
38236
38339
38436
38525
38610
38663
38721
38775
38856
38937
38980
39039
39125
39217
39254
39310
39393
39473
39512
39550
39641
39723
39821
39858
39890
39921
40013
40111
40152
40182
40208
40297
40380
40395
40460
40492
40508
40541
40622
40736
40766
40797
40843
40943
41048
41089
41150
41240
41322
41403
41486
41573
41679
41719
41785
41880
41982
42082
42175
42274
42321
42370
42458
42546
42614
42673
42729
42769
42826
42863
42925
43020
43123
43165
43225
43317
43410
43509
43604
43698
43796
43897
43989
44087
44192
44289
44389
44487
44579
44676
44780
44881
44985
45030
45087
45176
45258
45327
45381
45430
45517
45621
45721
45818
45921
46021
46105
46182
46261
46361
46403
46451
46551
46666
46772
46873
46976
47076
47165
47249
47342
47387
47434
47526
47630
47669
47731
47825
47923
48017
48101
48186
48224
48253
48381
48480
48579
48624
48675
48761
48857
48959
49051
49145
49244
49336
49425
49522
49615
49705
49810
49856
49911
50005
50045
50098
50142
50200
50249
50295
50382
50421
50476
50509
50541
50572
50662
50746
50765
50786
50814
50828
50847
50944
50963
51045
51094
51131
51146
51170
51238
51266
51326
51378
51396
51412
51445
51494
51512
51579
51600
51680
51778
51870
51966
51991
52067
52165
52269
52376
52474
52576
52676
52773
52858
52935
53045
53145
53245
53347
53445
53542
53633
53716
53797
53902
54011
54118
54220
54314
54399
54482
54567
54642
54749
54846
54946
55042
55128
55206
55283
55365
55453
55551
55643
55733
55774
55814
55891
55964
56044
56127
56211
56307
56349
56409
56504
56601
56697
56779
56855
56929
57019
57110
57210
57249
57291
57415
57454
57518
57566
57613
57699
57740
57780
57801
57861
57896
57943
57961
58028
58054
58134
58163
58235
58326
58422
58457
58515
58602
58639
58693
58789
58881
58974
59020
59072
59113
59166
59255
59336
59416
59510
59544
59578
59611
59641
59704
59804
59866
59903
59992
60084
60122
60167
60247
60334
60426
60532
60631
60703
60758
60821
60903
60995
61036
61084
61168
61211
61267
61305
61334
61359
61464
61505
61568
61585
61607
61618
61637
61665
61757
61785
61796
61848
61920
61936
61984
62037
62077
62126
62222
62250
62312
62400
62490
62528
62581
62666
62747
62837
62875
62925
63013
63105
63140
63200
63285
63366
63449
63531
63606
63684
63775
63861
63951
64053
64150
64248
64291
64345
64437
64530
64625
64665
64717
64804
64893
64983
65087
65194
65296
65389
65483
65582
65678
65775
65877
65920
65972
66064
66160
66202
66254
66342
66428
66465
66508
66586
66701
66735
66805
66905
66927
67009
67048
67108
67202
67228
67295
67323
67381
67459
67534
67616
67698
67786
67896
67999
68105
68210
68304
68402
68502
68594
68681
68772
68869
68960
69061
69162
69255
69348
69440
69526
69605
69688
69728
69782
69878
69978
70077
70167
70260
70357
70451
70538
70629
70728
70814
70910
71009
71102
71193
71297
71388
71469
71549
71658
71699
71756
71849
71955
72056
72152
72252
72294
72347
72416
72535
72578
72634
72731
72832
72932
73022
73108
73207
73310
73415
73524
73627
73726
73828
73930
74023
74117
74210
74299
74390
74488
74529
74587
74679
74768
74807
74865
74951
75041
75138
75227
75312
75417
75520
75617
75722
75825
75921
76023
76127
76227
76323
76425
76529
76629
76723
76825
76925
77022
77128
77236
77337
77437
77540
77636
77726
77807
77872
77944
78003
78100
78205
78303
78403
78506
78599
78684
78766
78850
78928
79022
79116
79207
79308
79346
79409
79506
79605
79694
79779
79868
79954
80036
80122
80205
80283
80360
80451
80490
80545
80630
80724
80814
80894
80974
81075
81161
81262
81363
81449
81526
81608
81649
81698
81797
81910
82012
82109
82207
82301
82381
82455
82554
82595
82653
82747
82859
82966
83066
83172
83277
83376
83481
83589
83693
83792
83893
83996
84101
84200
84285
84365
84453
84566
84668
84767
84868
84961
85049
85129
85207
85289
85385
85472
85560
85656
85742
85834
85932
86022
86111
86199
86243
86284
86365
86466
86503
86558
86644
86736
86836
86930
87024
87124
87166
87215
87300
87395
87436
87489
87580
87622
87681
87785
87881
87976
88015
88057
88132
88208
88305
88398
88490
88591
88630
88685
88771
88858
88900
88947
89029
89111
89206
89241
89296
89383
89483
89521
89556
89572
89658
89699
89739
89822
89841
89861
89910
89998
90100
90205
90305
90408
90511
90607
90702
90796
90885
90974
91065
91156
91245
91344
91441
91532
91630
91724
91810
91886
91971
92012
92069
92163
92268
92373
92464
92553
92647
92738
92833
92934
93026
93120
93209
93255
93310
93350
93404
93509
93548
93608
93702
93806
93900
93991
94089
94193
94292
94391
94494
94593
94700
94803
94845
94900
94977
95054
95159
95253
95350
95446
95532
95630
95727
95811
95893
95983
96066
96150
96247
96335
96422
96523
96561
96610
96690
96784
96885
96981
97086
97189
97287
97392
97496
97592
97688
97791
97888
97988
98094
98137
98195
98286
98330
98377
98468
98495
98552
98628
98711
98747
98803
98893
98993
99092
99179
99254
99333
99423
99503
99579
99655
99730
99803
99879
99965
100047
100127
100212
100293
100366
100436
100508
100547
100581
100649
100719
100785
100850
100919
101013
101099
101173
101253
101338
101417
101489
101562
101645
101727
101803
101887
101979
102056
102133
102215
102292
102367
102449
102538
102615
102696
102781
102858
102934
103023
103115
103192
103272
103362
103446
103538
103636
103726
103815
103898
103975
104050
104135
104225
104308
104397
104476
104552
104635
104729
104820
104902
104988
105086
105177
105275
105376
105469
105562
105658
105749
105840
105934
106023
106109
106200
106291
106381
106476
106568
106654
106742
106834
106921
106999
107077
107157
107193
107240
107323
107421
107518
107610
107699
107793
107878
107955
108030
108071
108176
108250
108338
108430
108528
108628
108720
108811
108905
108995
109079
109164
109254
109337
109421
109518
109559
109612
109700
109792
109878
109959
110034
110114
110153
110193
110267
110339
110418
110450
110499
110577
110667
110708
110759
110844
110936
111031
111116
111201
111290
111379
111462
111556
111653
111736
111815
111895
111933
111978
112059
112163
112201
112263
112355
112455
112547
112643
112735
112822
112909
112994
113067
113159
113238
113340
113414
113538
113631
113718
113794
113872
113914
113953
113991
114039
114115
114207
114238
114304
114395
114494
114592
114681
114770
114826
114870
114956
115031
115109
115207
115246
115298
115390
115486
115580
115662
115744
115831
115914
115989
116064
116146
116225
116300
116377
116415
116459
116536
116617
116703
116785
116861
116939
117019
117102
117180
117275
117311
117370
117452
117537
117636
117673
117731
117813
117904
117946
118003
118092
118189
118288
118377
118465
118564
118655
118745
118842
118933
119015
119101
119138
119193
119278
119363
119454
119540
119625
119720
119811
119893
119985
120025
120074
120158
120238
120278
120313
120363
120405
120487
120505
120581
120617
120677
120766
120855
120896
120939
121037
121121
121212
121299
121386
121483
121578
121662
121746
121842
121937
122032
122131
122225
122325
122424
122514
122608
122699
122786
122880
122975
123062
123144
123232
123326
123412
123507
123609
123706
123803
123901
123989
124080
124179
124271
124369
124471
