"cardiac"
134
219
303
384
477
576
663
752
792
842
880
927
1004
1044
1088
1132
1178
1211
1260
1338
1375
1426
1446
1468
1511
1588
1674
1713
1767
1851
1949
1987
2031
2132
2216
2265
2311
2387
2463
2510
2554
2627
2714
2755
2798
2878
2969
3010
3065
3151
3242
3277
3320
3397
3468
3516
3553
3686
3773
3807
3899
4164
4324
4381
4467
4548
4633
4693
4743
4805
4848
4881
4927
4968
5005
5036
5070
5089
5133
5213
5233
5298
5388
5469
5553
5640
5727
5807
5891
5930
5977
6058
6138
6212
6260
6305
6384
6468
6506
6554
6635
6715
6799
6836
6883
6939
7043
7091
7135
7216
7302
7342
7388
7468
7549
7590
7634
7715
7747
7810
8099
8193
8267
8339
8414
8494
8533
8579
8657
8738
8827
8907
8986
9068
9147
9225
9304
9385
9463
9545
9631
9671
9715
9792
9878
9915
9962
10040
10121
10206
10292
10372
10453
10537
10621
10703
10784
10868
10954
11036
11119
11204
11290
11370
11454
11539
11621
11700
11783
11867
11945
12028
12113
12196
12276
12361
12445
12526
12609
12699
12788
12872
12956
13043
13127
13209
13294
13381
13462
13546
13633
13720
13800
13884
13970
14053
14133
14216
14296
14377
14459
14542
14623
14706
14790
14869
14948
15030
15111
15189
15270
15352
15429
15509
15592
15676
15756
15839
15927
16011
16092
16176
16258
16336
16415
16497
16578
16657
16740
16823
16901
16982
17066
17148
17228
17312
17396
17475
17556
17638
17719
17800
17881
17964
18041
18121
18190
18285
18369
18449
18532
18609
18690
18772
18855
18933
19015
19098
19181
19263
19349
19438
19521
19606
19694
19782
19820
19865
19910
20022
20097
20171
20248
20340
20426
20564
20643
20726
20766
20811
20859
20919
20962
21043
21141
21188
21316
21359
21463
22365
22455
22497
22587
22620
22674
22712
22754
22839
22925
22962
23009
23085
23167
23261
23344
23430
23520
23600
23679
23761
23842
23918
23997
24080
24162
24240
24323
24411
24494
24578
24668
24758
24839
24924
25011
25095
25180
25268
25359
25441
25524
25610
25692
25775
25862
25953
26034
26121
26214
26297
26383
26472
26556
26634
26721
26807
26889
26976
27063
27144
27230
27319
27398
27482
27573
27656
27741
27831
27913
27996
28082
28165
28242
28324
28409
28487
28569
28655
28735
28816
28899
28980
29056
29135
29220
29300
29381
29466
29550
29630
29711
29796
29879
29958
30039
30121
30201
30282
30365
30447
30526
30608
30692
30773
30854
30939
31021
31102
31187
31270
31350
31432
31516
31596
31676
31758
31841
31921
32005
32089
32169
32253
32334
32414
32495
32578
32659
32738
32818
32899
32977
33057
33140
33218
33301
33389
33470
33551
33590
33635
33715
33796
33880
33966
34048
34134
34222
34305
34385
34468
34552
34632
34711
34792
34873
34952
35029
35108
35188
35267
35347
35430
35514
35593
35672
35754
35837
35915
35995
36078
36161
36238
36319
36403
36484
36563
36645
36730
36810
36889
36972
37055
37132
37213
37295
37376
37452
37532
37613
37692
37770
37851
37931
38008
38087
38168
38246
38325
38407
38489
38567
38647
38730
38813
38893
38973
39057
39140
39221
39300
39382
39465
39545
39624
39705
39788
39870
39948
40028
40111
40193
40272
40351
40433
40515
40592
40675
40759
40842
40919
40998
41080
41164
41244
41325
41409
41493
41573
41653
41736
41820
41901
41976
42053
42136
42220
42299
42379
42465
42550
42631
42713
42798
42884
42965
43046
43130
43213
43292
43373
43456
43538
43616
43698
43782
43868
43948
44029
44112
44196
44279
44357
44438
44521
44603
44681
44764
44849
44931
45010
45093
45179
45261
45342
45427
45513
45594
45676
45761
45846
45930
46010
46092
46178
46262
46341
46421
46503
46585
46665
46745
46830
46917
46998
47079
47163
47250
47331
47414
47501
47592
47676
47759
47844
47929
48014
48093
48174
48257
48342
48423
48508
48596
48682
48762
48845
48929
49015
49097
49179
49262
49344
49422
49500
49584
49668
49746
49828
49906
49981
50058
50134
50211
50293
50369
50452
50500
50596
50629
50664
50726
50826
50906
50983
51057
51123
51205
51278
51335
51425
51505
51603
51641
51686
51720
51763
51798
51835
51871
51913
51945
51987
52025
52061
52110
52148
52196
52282
52372
52461
52544
52630
52719
52803
52884
52968
53051
53130
53210
53293
53373
53453
53537
53623
53705
53787
53873
53961
54045
54127
54211
54297
54380
54459
54541
54626
54709
54787
54869
54953
55035
55116
55199
55284
55366
55446
55529
55613
55691
55772
55856
55939
56019
56103
56186
56268
56349
56432
56516
56597
56679
56764
56849
56928
57008
57088
57171
57253
57335
57422
57510
57592
57678
57767
57849
57931
58016
58099
58179
58262
58346
58430
58512
58596
58682
58765
58844
58927
59013
59095
59173
59253
59337
59421
59501
59583
59668
59752
59834
59920
60005
60089
60166
60247
60330
60412
60490
60569
60653
60739
60819
60903
60988
61072
61151
61235
61317
61394
61476
61547
61637
61709
61781
61853
61927
61999
62075
62155
62236
62314
62395
62481
62563
62642
62724
62805
62883
62962
63044
63126
63204
63285
63370
63451
63533
63619
63703
63782
63866
63951
64033
64114
64198
64280
64360
64442
64525
64606
64689
64775
64860
64941
65026
65112
65198
65234
65319
65363
65418
65572
65628
65709
65782
65823
65857
65890
65936
66230
66275
66343
66405
66472
66539
66605
66638
66673
66742
66815
66852
66893
66944
67201
67275
67352
67433
67518
67596
67676
67760
67844
67924
68008
68093
68175
68252
68331
68413
68492
68575
68663
68755
68836
68923
69011
69099
69183
69269
69356
69437
69521
69606
69689
69767
69848
69932
70013
70095
70180
70265
70345
70428
70513
70593
70674
70758
70842
70920
71003
71088
71172
71252
71334
71418
71504
71585
71666
71751
71838
71919
72002
72087
72174
72256
72338
72420
72495
72571
72645
72724
72806
72888
72968
73053
73141
73223
73304
73369
73418
73454
73601
73680
73759
73839
73914
73989
74068
74150
74230
74310
74395
74486
74570
74653
74740
74780
74827
74909
74946
74994
75084
75176
75260
75350
75448
75532
75621
75711
75802
75886
75970
76058
76145
76229
76313
76402
76490
76576
76663
76750
76835
76915
76999
77085
77171
77253
77345
77402
77449
77519
77583
77674
77747
77850
77944
78043
78123
78206
78291
78367
78451
78539
78623
78704
78788
78873
78956
79037
79123
79209
79291
79373
79460
79549
79636
79717
79802
79844
79891
79968
80004
80058
80136
80221
80298
80380
80464
80549
80626
80709
80745
80790
80867
80946
81027
81065
81107
81185
81264
81345
81421
81499
81580
81662
81737
81817
81855
81897
81973
82051
82131
82211
82286
82366
82446
82524
82603
82685
82767
82842
82922
82965
83004
83081
83160
83240
83320
83395
83474
83555
83633
83711
83792
83875
83954
84036
84122
84208
84288
84374
84460
84545
84625
84707
84789
84870
84948
85030
85114
85197
85277
85361
85450
85536
85614
85698
85783
85869
85950
86035
86121
86203
86286
86373
86459
86544
86631
86722
86814
86901
86985
87073
87162
87247
87329
87416
87506
87542
87593
87676
87764
87852
87937
88018
88103
88191
88274
88354
88437
88521
88603
88685
88772
88861
88947
89029
89119
89208
89289
89376
89468
89557
89638
89720
89807
89894
89980
90065
90160
90252
90290
90339
90379
90423
90512
90601
90640
90688
90773
90860
90947
90985
91031
91109
91191
91278
91364
91447
91542
91632
91720
91812
91906
91998
92088
92173
92262
92347
92430
92513
92599
92688
92727
92774
92858
92946
93035
93122
93206
93289
93325
93376
93430
93465
93551
93639
93681
93717
93795
93843
93945
94114
94219
94419
94502
94583
94637
94740
94899
94987
95043
95146
95276
95468
95580
95655
95736
95822
96024
96271
96353
96482
96562
96645
96700
96761
96850
96891
96970
97051
97132
97211
97289
97368
97451
97535
97615
97701
97738
97787
97868
97951
98037
98120
98200
98284
98367
98445
98483
98525
98610
98648
98692
98774
98858
98944
98984
99032
99111
99190
99272
99309
99355
99434
99517
99602
99687
99768
99854
99892
99936
100018
100101
100187
100229
100271
100352
100435
100522
100609
100692
100777
100866
100954
101038
101116
101207
101292
101374
101450
101530
101612
101698
101779
101876
101915
101968
102048
102137
102174
102218
102305
102387
102473
102512
102550
102588
102633
102673
102757
102803
102840
102869
102967
103008
103056
103136
103174
103219
103257
103297
103346
103392
103474
103554
103651
103737
103825
103879
103952
104032
104081
104137
104289
104356
104413
104543
104591
104635
104756
104811
104959
105074
105176
105402
105478
105560
105644
105812
105947
106006
106084
106325
106486
106564
106645
106728
106810
106901
106991
107074
107164
107256
107342
107423
107508
107595
107679
107761
107847
107934
108019
108103
108193
108281
108322
108367
108447
108533
108626
108716
108806
108899
108988
109073
109165
109252
109332
109408
109491
109577
109656
109744
109832
109912
109998
110093
110179
110258
110345
110444
110536
110619
110704
110798
110839
110885
110967
111055
111147
111233
111315
111399
111488
111572
111652
111739
111829
111913
111995
112082
112170
112251
112337
112431
112472
112521
112607
112702
112793
112874
112957
113050
113143
113229
113312
113400
113489
113571
113657
113742
113787
113873
113972
114104
114193
114274
114359
114422
114519
114596
114654
114757
114809
114857
114919
114960
115533
115610
115648
115681
115714
115778
115861
115938
116017
116099
116180
116257
116339
116424
116463
116511
116595
116681
116722
116769
116852
116938
116976
117026
117107
117248
117326
117370
117415
117495
117559
117629
117703
117746
117839
117888
117975
118037
118080
118153
118383
118657
118840
118948
119046
119304
119570
119676
119818
119956
120034
120109
120229
120309
120395
120480
120563
120650
120740
120828
120911
120998
121085
121171
121253
121337
121424
121509
121590
121674
121760
121842
121923
122006
122091
122171
122255
122342
122425
122507
122592
122678
122762
122842
122928
123013
123098
123182
123270
123308
123357
123439
123527
123617
123654
123705
123786
123822
123872
123912
123958
124042
124119
124203
124238
124293
124380
124470
