"cardiac"
121
203
284
367
442
524
601
682
757
836
919
1002
1087
1170
1256
1335
1414
1497
1579
1662
1740
1817
1900
1984
2070
2158
2239
2321
2405
2493
2581
2669
2755
2836
2924
3010
3098
3187
3273
3351
3433
3523
3612
3702
3790
3871
3952
4038
4125
4212
4292
4378
4467
4559
4649
4729
4818
4908
4997
5088
5175
5253
5339
5425
5513
5603
5683
5765
5856
5946
6034
6112
6194
6278
6358
6437
6515
6595
6679
6766
6856
6947
7036
7118
7201
7287
7375
7462
7550
7631
7711
7797
7884
7966
8044
8126
8207
8286
8361
8440
8520
8600
8676
8753
8835
8916
8998
9077
9153
9233
9313
9394
9477
9555
9630
9709
9787
9863
9937
10013
10091
10170
10250
10327
10401
10475
10553
10631
10709
10782
10859
10937
11016
11091
11167
11246
11327
11405
11484
11565
11646
11730
11811
11889
11971
12051
12133
12208
12285
12363
12444
12525
12601
12679
12759
12840
12919
12994
13073
13154
13234
13316
13392
13468
13548
13629
13711
13790
13866
13948
14031
14113
14192
14271
14353
14435
14519
14600
14678
14759
14842
14926
15010
15089
15164
15243
15324
15405
15484
15561
15643
15727
15810
15891
15969
16052
16135
16219
16300
16377
16460
16543
16626
16704
16781
16863
16945
17029
17109
17186
17268
17349
17431
17509
17588
17667
17747
17822
17899
17979
18060
18138
18216
18298
18380
18461
18539
18617
18698
18780
18862
18938
19015
19096
19177
19257
19332
19409
19488
19568
19648
19726
19805
19887
19969
20045
20126
20207
20286
20362
20438
20518
20597
20672
20749
20831
20913
20992
21070
21151
21232
21311
21390
21472
21555
21634
21714
21796
21877
21954
22031
22111
22191
22274
22354
22435
22519
22603
22683
22763
22844
22925
23001
23078
23158
23237
23313
23390
23469
23549
23630
23709
23791
23873
23951
24031
24112
24192
24267
24346
24425
24503
24580
24654
24730
24806
24880
24959
25039
25120
25196
25277
25358
25437
25513
25595
25679
25765
25848
25930
26019
26110
26194
26278
26365
26455
26540
26624
26711
26799
26883
26968
27056
27146
27233
27318
27407
27497
27585
27669
27757
27848
27937
28020
28110
28201
28290
28381
28473
28566
28656
28740
28826
28914
29004
29094
29184
29274
29357
29441
29528
29617
29706
29789
29873
29961
30048
30133
30214
30292
30374
30459
30546
30636
30719
30802
30888
30975
31064
31152
31238
31320
31405
31491
31579
31667
31756
31845
31927
32007
32091
32177
32263
32350
32431
32515
32601
32686
32774
32860
32943
33028
33115
33204
33294
33377
33462
33545
33625
33705
33787
33868
33946
34027
34110
34194
34280
34365
34451
34537
34619
34699
34781
34866
34951
35038
35126
35207
35287
35371
35458
35546
35634
35721
35802
35888
35977
36066
36156
36244
36327
36412
36500
36591
36683
36774
36865
36947
37033
37122
37212
37303
37393
37478
37559
37645
37735
37827
37919
38007
38090
38177
38266
38355
38446
38531
38620
38710
38801
38890
38972
39059
39149
39241
39324
39408
39495
39584
39664
39751
39840
39929
40012
40099
40189
40274
40356
40441
40527
40607
40691
40778
40860
40944
41031
41118
41200
41285
41373
41461
41544
41625
41709
41791
41869
41947
42027
42108
42191
42269
42350
42433
42516
42594
42671
42750
42832
42915
42993
43074
43157
43237
43313
43395
43476
43556
43636
43721
43800
43881
43964
44049
44130
44209
44291
44373
44451
44529
44610
44693
44771
44847
44927
45010
45092
45171
45253
45335
45414
45493
45576
45662
45745
45824
45906
45988
46067
46143
46223
46303
46382
46457
46537
46617
46698
46776
46850
46930
47010
47091
47167
47245
47324
47403
47484
47559
47639
47719
47801
47879
47954
48032
48113
48193
48276
48359
48437
48518
48602
48686
48769
48854
48937
49022
49103
49182
49263
49349
49435
49515
49592
49675
49762
49850
49928
50007
50090
50177
50261
50339
50425
50514
50603
50684
50764
50850
50936
51024
51106
51186
51269
51357
51442
51520
51605
51694
51781
51860
51948
52039
52122
52201
52285
52373
52458
52536
52619
52708
52799
52888
52974
53062
53150
53238
53319
53407
53494
53578
53658
53748
53837
53925
54009
54096
54185
54273
54356
54440
54524
54610
54693
54771
54857
54942
55025
55103
55190
55277
55362
55440
55527
55613
55699
55779
55868
55956
56043
56126
56214
56304
56388
56472
56559
56647
56736
56815
56904
56992
57082
57167
57253
57340
57424
57503
57592
57680
57769
57852
57941
58031
58121
58206
58285
58372
58457
58544
58630
58709
58798
58889
58981
59066
59150
59239
59328
59411
59494
59580
59665
59744
59827
59911
59997
60079
60155
60239
60323
60407
60484
60569
60655
60742
60821
60903
60986
61069
61147
61228
61311
61395
61473
61556
61640
61725
61807
61892
61980
62065
62148
62235
62324
62409
62490
62574
62659
62748
62832
62915
63004
63091
63176
63259
63345
63431
63515
63595
63680
63766
63848
63936
64023
64106
64188
64275
64360
64441
64527
64615
64698
64779
64863
64946
65028
65113
65200
65283
65366
65452
65538
65623
65706
65793
65881
65967
66045
66132
66219
66304
66384
66473
66563
66648
66727
66812
66896
66981
67060
67146
67234
67325
67409
67495
67581
67664
67746
67832
67916
67995
68085
68173
68261
68347
68427
68515
68603
68687
68771
68858
68947
69031
69115
69203
69291
69376
69460
69546
69631
69710
69794
69882
69975
70068
70154
70242
70330
70417
70500
70582
70665
70750
70832
70911
71001
71088
71176
71261
71346
71432
71509
71586
71670
71756
71842
71927
72016
72105
72193
72276
72361
72449
72536
72621
72700
72787
72874
72965
73057
73148
73242
73334
73422
73503
73591
73678
73767
73853
73931
74018
74104
74193
74284
74374
74456
74536
74622
74709
74800
74891
74980
75072
75165
75251
75329
75417
75507
75599
75689
75769
75847
75931
76015
76101
76176
76261
76348
76439
76530
76622
76713
76797
76877
76965
77052
77139
77218
77303
77388
77475
77559
77637
77727
77814
77902
77988
78067
78158
78246
78335
78420
78497
78584
78671
78759
78847
78932
79010
79098
79184
79271
79349
79433
79518
79603
79690
79770
79854
79938
80026
80115
80203
80288
80363
80444
80529
80613
80699
80778
80860
80944
81029
81114
81191
81270
81353
81439
81527
81614
81693
81781
81868
81954
82034
82112
82194
82278
82362
82439
82516
82600
82688
82779
82869
82956
83037
83121
83206
83293
83382
83467
83544
83628
83715
83802
83887
83970
84060
84151
84242
84331
84418
84495
84581
84668
84758
84846
84931
85009
85097
85184
85269
85346
85425
85509
85589
85667
85743
85824
85908
85993
86071
86148
86228
86311
86393
86469
86547
86628
86715
86799
86879
86963
87048
87130
87207
87288
87373
87461
87545
87624
87702
87787
87873
87958
88037
88114
88194
88278
88358
88437
88515
88600
88684
88766
88842
88925
89013
89090
89172
89260
89345
89430
89514
89593
89670
89745
89822
89899
89973
90045
90120
90198
90279
90360
90439
90518
90598
90679
90760
90840
90916
90999
91081
91165
91252
91336
91421
91509
91598
91676
91752
91832
91921
92012
92103
92190
92279
92370
92459
92548
92628
92711
92800
92887
92972
93053
93146
93241
93333
93425
93514
93596
93683
93768
93854
93940
94028
94107
94194
94283
94371
94457
94535
94615
94699
94786
94873
94961
95042
95119
95202
95289
95378
95468
95551
95630
95672
95718
95809
95899
95990
96077
96153
96228
96302
96379
96469
96559
96649
96739
96819
96900
96990
97079
97167
97255
97332
97409
97490
97577
97664
97754
97844
97930
98008
98097
98183
98271
98361
98452
98545
98634
98714
98800
98892
98979
99066
99150
99230
99315
99406
99494
99582
99671
99752
99844
99933
100022
100113
100194
100288
100378
100460
100546
100637
100728
100818
100910
100994
101079
101169
101258
101345
101434
101524
101604
101685
101775
101867
101960
102052
102137
102214
102294
102380
102464
102550
102629
102706
102787
102871
102957
103043
103120
103194
103270
103353
103437
103523
103601
103681
103768
103855
103942
104029
104110
104196
104282
104369
104449
104536
104622
104708
104797
104884
104964
105051
105137
105228
105320
105408
105485
105563
105648
105732
105819
105895
105970
106055
106138
106223
106308
106385
106461
106545
106627
106712
106798
106876
106962
107051
107140
107229
107309
107389
107478
107565
107653
107742
107820
107899
107983
108067
108153
108227
108304
108388
108473
108562
108651
108742
108835
108925
109001
109081
109166
109252
109343
109437
109530
109612
109692
109779
109868
109956
110042
110122
110211
110300
110392
110483
110566
110646
110731
110819
110907
110996
111082
111162
111247
111337
111426
111514
111605
111685
111766
111853
111938
112027
112119
112212
112304
112391
112469
112547
112634
112725
112815
112904
112994
113083
113166
113248
113339
113429
113519
113607
113695
113774
113854
113941
114025
114113
114192
114280
114370
114459
114545
114621
114704
114789
114876
114959
115043
115121
115196
115275
115356
115438
115521
115605
115689
115767
115842
115924
116006
116092
116179
116260
116335
116416
116498
116582
116668
116752
116834
116923
117013
117103
117191
117271
117358
117447
117534
117622
117711
117799
117884
117960
118040
118127
118212
118300
118387
118471
118546
118623
118702
118784
118866
118949
119035
119123
119202
119290
119381
119467
119546
119635
119723
119811
119900
119985
120064
120158
120251
120345
120439
120532
120623
120712
120790
120875
120959
121046
121132
121208
121293
121376
121460
121544
121628
121704
121783
121865
121949
122033
122117
122194
122271
122354
122437
122519
122602
122678
122752
122829
122911
122995
123080
123167
123246
123327
123410
123494
123579
123663
123746
123831
123918
123998
124079
124163
124254
124347
124432
124512
