"cardiac"
79
124
157
236
309
329
381
436
523
590
660
734
817
895
976
1060
1140
1220
1300
1379
1458
1539
1621
1709
1802
1889
1976
2063
2149
2229
2313
2397
2479
2562
2647
2732
2813
2895
2980
3064
3145
3226
3309
3389
3471
3557
3644
3728
3815
3902
3987
4068
4150
4234
4316
4403
4492
4585
4672
4762
4851
4934
5017
5101
5184
5268
5355
5445
5535
5633
5728
5819
5906
5993
6079
6160
6242
6325
6410
6493
6581
6674
6765
6857
6949
7035
7120
7200
7277
7351
7424
7496
7566
7634
7688
7774
7843
7921
8003
8085
8166
8249
8332
8412
8490
8567
8648
8723
8799
8877
8956
9034
9117
9204
9289
9376
9462
9549
9631
9714
9796
9878
9958
10042
10129
10215
10302
10391
10478
10567
10655
10740
10825
10909
10991
11071
11153
11240
11327
11415
11503
11591
11676
11758
11842
11926
12007
12088
12123
12170
12245
12318
12387
12456
12528
12603
12677
12755
12835
12914
12994
13074
13155
13231
13310
13391
13472
13552
13634
13722
13806
13893
13977
14062
14143
14227
14315
14405
14493
14584
14675
14760
14846
14935
15022
15106
15194
15284
15373
15458
15546
15634
15721
15805
15889
15976
16064
16154
16252
16351
16446
16544
16639
16728
16814
16901
16986
17069
17156
17245
17332
17418
17505
17592
17676
17763
17852
17940
18030
18122
18211
18302
18393
18482
18568
18655
18741
18826
18914
19005
19094
19186
19279
19372
19461
19552
19644
19733
19818
19898
19980
20067
20154
20251
20352
20451
20548
20643
20735
20821
20905
20989
21073
21158
21243
21327
21419
21517
21607
21703
21797
21883
21969
22056
22140
22220
22302
22385
22462
22540
22622
22703
22782
22864
22948
23031
23111
23191
23273
23351
23429
23479
23590
23668
23746
23826
23907
23983
24060
24141
24221
24298
24377
24459
24536
24612
24690
24762
24833
24902
24967
25040
25109
25182
25225
25258
25339
25415
25492
25572
25650
25727
25805
25884
25961
26040
26124
26206
26289
26372
26461
26543
26628
26713
26796
26878
26961
27044
27124
27208
27298
27391
27481
27577
27672
27763
27848
27934
28020
28104
28188
28269
28357
28453
28551
28652
28747
28839
28925
29011
29095
29173
29254
29340
29424
29511
29601
29689
29774
29860
29942
30024
30108
30193
30279
30361
30449
30535
30612
30685
30754
30822
30894
30973
31059
31152
31244
31334
31428
31519
31602
31690
31775
31857
31937
32020
32098
32177
32256
32336
32412
32488
32568
32647
32724
32805
32886
32962
33041
33122
33196
33272
33348
33426
33503
33579
33658
33739
33819
33898
33976
34054
34133
34213
34289
34368
34448
34530
34612
34692
34775
34858
34941
35018
35097
35177
35256
35335
35416
35502
35588
35673
35759
35847
35935
36018
36104
36189
36272
36355
36439
36524
36607
36689
36774
36860
36944
37033
37124
37213
37298
37385
37473
37559
37639
37722
37805
37890
37971
38057
38147
38236
38325
38416
38505
38590
38673
38755
38837
38919
38995
39070
39115
39225
39298
39376
39453
39535
39616
39694
39774
39855
39937
40013
40091
40172
40252
40331
40413
40497
40579
40660
40742
40826
40910
40993
41079
41164
41246
41328
41412
41497
41581
41665
41750
41834
41917
41996
42075
42158
42243
42333
42428
42523
42613
42706
42798
42886
42966
43044
43122
43202
43284
43368
43464
43561
43653
43748
43841
43934
44022
44109
44195
44280
44363
44442
44525
44568
44615
44707
44798
44892
44985
45077
45163
45245
45326
45409
45492
45572
45654
45740
45825
45906
45989
46073
46156
46236
46317
46400
46483
46563
46647
46731
46817
46901
46990
47078
47167
47249
47336
47421
47507
47590
47673
47761
47853
47944
48036
48130
48221
48308
48397
48484
48571
48653
48738
48826
48914
49003
49094
49187
49278
49364
49448
49534
49621
49708
49793
49884
49977
50068
50156
50241
50327
50414
50501
50584
50665
50748
50832
50917
51000
51089
51181
51271
51361
51453
51545
51633
51714
51796
51882
51973
52066
52160
52257
52352
52443
52531
52619
52704
52785
52869
52958
53048
53137
53231
53328
53422
53510
53595
53681
53769
53855
53945
54036
54127
54213
54299
54388
54477
54565
54656
54743
54829
54914
54993
55076
55166
55256
55352
55448
55543
55631
55720
55807
55893
55975
56054
56136
56221
56308
56396
56486
56578
56669
56755
56839
56924
57007
57087
57165
57247
57336
57426
57522
57619
57716
57804
57896
57985
58071
58156
58241
58328
58413
58502
58587
58677
58767
58854
58938
59028
59115
59200
59282
59367
59453
59537
59623
59702
59779
59857
59935
60016
60096
60186
60278
60369
60457
60547
60634
60716
60798
60879
60963
61045
61124
61206
61292
61378
61458
61544
61630
61714
61798
61876
61964
62050
62137
62219
62304
62389
62473
62554
62638
62726
62813
62897
62978
63059
63141
63225
63310
63393
63482
63564
63663
63751
63835
63920
64004
64085
64166
64242
64320
64401
64487
64575
64670
64766
64860
64946
65034
65124
65212
65299
65377
65456
65537
65618
65704
65785
65871
65965
66061
66153
66248
66348
66442
66531
66617
66697
66778
66822
66942
67022
67112
67207
67253
67299
67390
67473
67560
67649
67736
67822
67900
67982
68066
68151
68237
68319
68405
68492
68578
68661
68742
68821
68902
68983
69068
69149
69241
69341
69385
69443
69537
69629
69723
69814
69903
69988
70070
70156
70239
70322
70400
70480
70563
70647
70730
70811
70895
70974
71053
71091
71131
71368
71452
71529
71601
71676
71754
71827
71909
71987
72084
72171
72256
72344
72384
72429
72518
72561
72597
72645
72677
72733
72775
72820
72862
72905
72951
73035
73121
73207
73293
73376
73456
73538
73621
73707
73791
73874
73958
74044
74129
74212
74299
74388
74477
74561
74645
74731
74816
74863
74899
74976
75053
75133
75219
75306
75395
75490
75583
75674
75761
75847
75933
76015
76096
76181
76271
76361
76448
76539
76633
76723
76810
76895
76982
77070
77157
77241
77323
77409
77494
77577
77659
77744
77829
77914
77994
78079
78126
78164
78242
78323
78408
78494
78531
78581
78663
78749
78833
78918
79001
79088
79174
79259
79337
79419
79503
79590
79673
79757
79842
79928
80010
80090
80172
80256
80340
80420
80501
80583
80670
80756
80840
80918
80993
81069
81148
81232
81321
81424
81532
81631
81729
81828
81925
82014
82105
82199
82291
82380
82467
82560
82650
82740
82825
82908
82994
83081
83170
83256
83343
83435
83531
83624
83712
83798
83886
83975
84061
84144
84228
84311
84392
84472
84555
84641
84726
84802
84889
84963
85035
85100
85170
85239
85305
85343
85451
85485
85539
85593
85622
85652
85793
85843
86078
86147
86182
86263
86298
86367
86425
86534
86578
86648
86696
86755
86823
86934
87001
87048
87114
87148
87229
87302
87352
87408
87434
87533
87607
87683
87750
87841
87915
87993
88071
88154
88234
88317
88400
88483
88562
88648
88733
88817
88897
88982
89070
89159
89243
89330
89419
89511
89600
89683
89766
89847
89929
90011
90099
90195
90289
90379
90472
90563
90652
90736
90822
90908
90991
91071
91149
91230
91314
91401
91487
91574
91665
91757
91845
91929
92014
92101
92188
92273
92354
92435
92518
92601
92682
92762
92834
92909
92990
93075
93161
93250
93340
93432
93515
93596
93677
93755
93900
93971
94013
94112
94187
94254
94320
94367
94477
94545
94613
94658
94723
94752
94827
94893
94959
95006
95067
95091
95114
95161
95227
95292
95354
95396
95415
95463
95492
95559
95624
95676
95734
95754
95780
95829
95894
95959
95997
96066
96087
96164
96227
96289
96331
96355
96400
96424
96494
96545
96621
96656
96716
96864
96966
97055
97097
97171
97357
97401
97455
97507
97573
97606
97673
97730
97776
97834
97901
97949
98017
98060
98203
98252
98330
98373
98401
98451
98492
98575
98651
98730
98777
98814
98899
98984
99031
99076
99169
99259
99352
99443
99534
99622
99716
99811
99908
99999
100093
100185
100273
100357
100442
100530
100618
100713
100809
100903
100992
101082
101171
101257
101341
101426
101510
101593
101676
101766
101861
101958
102058
102156
102250
102339
102427
102514
102599
102681
102763
102848
102930
103015
103106
103196
103285
103369
103455
103542
103628
103710
103794
103879
103966
104054
104140
104231
104327
104420
104510
104598
104686
104772
104855
104933
105015
105105
105196
105288
105376
105461
105508
105547
105633
105711
105790
105839
105873
105963
106050
106146
106242
106335
106425
106516
106605
106689
106769
106849
106895
107013
107093
107175
107261
107352
107441
107534
107628
107720
107805
107893
107980
108065
108147
108232
108319
108404
108492
108575
108661
108746
108829
108910
108993
109079
109166
109254
109338
109423
109469
109511
109548
109597
109672
109745
109822
109906
109942
109993
110075
110168
110263
110443
110533
110621
110709
110793
110873
110958
111044
111129
111174
111218
111299
111386
111475
111564
111650
111733
111812
111894
111976
112057
112138
112218
112297
112379
112467
112553
112640
112724
112811
112899
112987
113070
113151
113234
113277
113317
113401
113484
113559
113637
113719
113806
113892
113989
114087
114181
114271
114361
114406
114448
114537
114616
114701
114788
114876
114967
115051
115137
115184
115219
115273
115391
115474
115555
115639
115688
115724
115766
115887
115963
116040
116120
116205
116297
116388
116486
116580
116674
116762
116852
116941
117028
117114
117198
117285
117371
117453
117535
117615
117700
117787
117869
117949
118030
118118
118206
118291
118372
118455
118541
118626
118709
118794
118835
118870
118965
119039
119112
119150
119189
119267
119344
119432
119477
119527
119614
119688
119742
119793
119877
119960
120010
120071
120134
120213
120292
120377
120423
120465
120554
120635
120725
120770
120794
120839
120868
120898
120976
121022
121059
121144
121183
121254
121273
121317
121397
121485
121574
121620
121661
121746
121827
121914
122002
122050
122090
122176
122263
122354
122445
122533
122616
122699
122782
122866
122949
123030
123115
123202
123285
123366
123448
123533
123616
123695
123774
123820
123931
124002
124073
124119
124225
124305
124397
124488
