"cardiac"
14
36
42
52
65
74
79
85
98
111
125
146
152
157
175
187
198
204
214
231
240
254
261
277
286
295
303
313
323
338
345
356
366
382
394
410
416
423
434
440
449
464
471
479
495
509
516
524
532
553
565
572
578
592
599
608
613
622
635
649
659
664
681
689
699
706
713
718
724
736
756
765
780
788
799
813
824
831
845
852
859
864
883
890
900
906
911
924
937
947
953
968
973
982
987
993
1004
1013
1038
1047
1058
1066
1078
1083
1092
1097
1103
1116
1126
1141
1152
1169
1176
1196
1207
1214
1220
1227
1235
1250
1255
1262
1280
1294
1300
1308
1315
1338
1351
1358
1369
1378
1384
1394
1407
1416
1422
1433
1439
1456
1463
1468
1476
1493
1498
1503
1526
1540
1546
1555
1562
1575
1583
1598
1605
1615
1640
1650
1659
1673
1686
1707
1718
1727
1741
1749
1758
1769
1776
1783
1791
1803
1807
1829
1847
1859
1865
1872
1881
1888
1897
1907
1914
1924
1936
1945
1955
1961
1968
1976
1990
1995
2005
2018
2025
2050
2062
2070
2084
2094
2102
2111
2116
2121
2128
2141
2152
2164
2173
2182
2193
2200
2211
2216
2226
2234
2239
2244
2249
2265
2270
2280
2286
2297
2307
2318
2323
2330
2338
2350
2356
2361
2375
2380
2392
2409
2419
2426
2432
2437
2445
2458
2467
2484
2499
2512
2525
2534
2539
2553
2560
2570
2575
2583
2593
2609
2617
2628
2640
2645
2653
2670
2679
2686
2693
2700
2714
2730
2750
2757
2766
2783
2790
2797
2804
2817
2827
2842
2849
2857
2869
2880
2885
2897
2905
2915
2922
2932
2942
2947
2958
2964
2975
2993
3000
3010
3018
3024
3042
3047
3059
3065
3077
3086
3105
3111
3117
3126
3142
3150
3156
3167
3172
3184
3189
3212
3220
3225
3231
3239
3250
3259
3270
3278
3290
3295
3300
3311
3318
3323
3330
3340
3346
3357
3364
3369
3382
3387
3393
3401
3418
3426
3438
3452
3462
3471
3483
3502
3508
3515
3529
3539
3544
3551
3558
3564
3576
3587
3594
3599
3623
3638
3650
3656
3666
3677
3686
3700
3710
3719
3728
3735
3751
3758
3764
3769
3784
3798
3805
3813
3819
3835
3842
3858
3871
3878
3884
3896
3902
3911
3918
3927
3938
3952
3962
3968
3981
3988
3997
4006
4014
4018
4029
4052
4062
4083
4089
4100
4115
4125
4131
4140
4150
4158
4177
4182
4199
4215
4223
4247
4257
4265
4277
4288
4298
4308
4313
4317
4323
4339
4347
4353
4369
4383
4397
4402
4410
4419
4427
4438
4446
4455
4479
4490
4498
4504
4514
4534
4548
4570
4577
4585
4594
4614
4621
4629
4637
4651
4662
4679
4694
4702
4710
4738
4750
4760
4771
4783
4792
4799
4805
4811
4818
4839
4844
4857
4878
4884
4890
4896
4910
4918
4932
4943
4951
4958
4964
4974
4989
5000
5008
5012
5029
5038
5049
5056
5065
5073
5090
5095
5101
5112
5130
5138
5166
5175
5181
5192
5201
5208
5217
5228
5237
5249
5255
5265
5271
5279
5283
5304
5310
5315
5326
5332
5348
5361
5369
5374
5383
5391
5406
5431
5442
5447
5461
5472
5480
5486
5493
5502
5513
5525
5530
5537
5550
5558
5564
5580
5594
5600
5610
5621
5627
5634
5642
5659
5664
5680
5688
5698
5711
5729
5738
5746
5752
5761
5776
5789
5795
5805
5823
5834
5840
5857
5866
5876
5893
5903
5913
5929
5938
5957
5974
5986
5997
6003
6009
6016
6026
6034
6041
6049
6060
6075
6084
6089
6094
6115
6126
6133
6144
6152
6162
6167
6186
6193
6199
6219
6232
6238
6245
6254
6272
6288
6299
6306
6323
6330
6347
6367
6374
6388
6396
6412
6423
6439
6455
6461
6469
6483
6493
6499
6511
6527
6537
6543
6552
6561
6574
6582
6589
6599
6607
6618
6626
6632
6638
6648
6655
6661
6672
6687
6699
6712
6726
6734
6741
6754
6762
6769
6776
6785
6798
6813
6819
6834
6842
6853
6859
6866
6888
6900
6909
6917
6937
6945
6953
6960
6966
6980
6993
7005
7011
7023
7030
7044
7049
7057
7067
7074
7088
7093
7100
7106
7119
7124
7131
7144
7150
7163
7170
7177
7183
7197
7206
7216
7230
7244
7251
7263
7271
7277
7283
7289
7296
7307
7325
7336
7343
7348
7358
7364
7372
7377
7397
7408
7427
7436
7449
7462
7468
7474
7489
7500
7506
7517
7526
7540
7553
7565
7577
7592
7603
7614
7619
7625
7639
7644
7650
7659
7663
7676
7692
7699
7715
7724
7736
7741
7748
7761
7776
7785
7794
7801
7825
7833
7839
7851
7860
7877
7883
7895
7909
7918
7924
7932
7941
7952
7961
7972
7978
7992
7998
8004
8027
8039
8048
8061
8070
8076
8082
8097
8105
8110
8124
8138
8145
8151
8159
8166
8179
8186
8200
8208
8219
8229
8241
8256
8264
8272
8283
8291
8300
8305
8314
8325
8342
8346
8357
8371
8384
8389
8396
8411
8419
8427
8432
8438
8454
8473
8481
8489
8510
8520
8528
8543
8564
8573
8585
8590
8600
8610
8619
8625
8646
8658
8668
8680
8687
8699
8704
8712
8720
8744
8752
8762
8786
8799
8814
8822
8829
8837
8848
8858
8864
8869
8880
8885
8890
8903
8908
8913
8925
8930
8937
8955
8965
8975
8986
8993
9001
9021
9028
9037
9051
9061
9072
9082
9088
9107
9116
9133
9139
9149
9155
9160
9167
9172
9193
9203
9212
9220
9230
9236
9250
9258
9263
9269
9296
9312
9320
9326
9340
9347
9360
9368
9375
9385
9390
9397
9406
9427
9435
9449
9457
9468
9475
9486
9498
9506
9516
9530
9542
9552
9565
9571
9578
9587
9595
9603
9621
9644
9650
9662
9668
9676
9693
9705
9716
9722
9728
9734
9742
9752
9757
9767
9781
9796
9817
9827
9834
9849
9862
9873
9884
9890
9901
9906
9917
9926
9934
9942
9958
9963
9968
9982
9987
10001
10007
10019
10031
10043
10051
10057
10063
10068
10080
10088
10094
10104
10117
10122
10127
10137
10146
10156
10166
10177
10188
10202
10221
10233
10245
10260
10267
10274
10284
10290
10307
10318
10326
10336
10355
10363
10377
10386
10394
10399
10414
10431
10442
10460
10473
10493
10500
10506
10518
10526
10534
10541
10551
10557
10574
10583
10591
10601
10608
10618
10626
10634
10641
10656
10672
10687
10708
10716
10725
10733
10744
10757
10768
10775
10779
10795
10805
10811
10816
10829
10842
10851
10857
10862
10867
10886
10893
10902
10919
10936
10953
10971
10981
10988
11007
11015
11022
11039
11053
11061
11066
11076
11089
11096
11107
11113
11118
11128
11136
11145
11156
11168
11181
11189
11198
11208
11218
11222
11232
11243
11259
11272
11278
11289
11298
11306
11310
11319
11324
11336
11353
11362
11373
11379
11390
11398
11409
11421
11426
11439
11444
11450
11456
11465
11470
11484
11496
11504
11522
11528
11538
11546
11551
11562
11568
11575
11593
11600
11607
11626
11632
11638
11652
11663
11673
11679
11689
11700
11706
11713
11726
11732
11745
11768
11777
11784
11793
11799
11813
11822
11834
11840
11855
11864
11871
11881
11891
11903
11921
11930
11939
11957
11965
11972
11981
11987
12002
12016
12022
12029
12041
12049
12056
12067
12075
12100
12106
12113
12129
12139
12144
12150
12155
12162
12178
12192
12200
12212
12231
12238
12244
12254
12260
12266
12282
12299
12309
12320
12325
12332
12337
12344
12349
12360
12375
12383
12403
12411
12425
12437
12445
12452
12460
12469
12478
12495
12500
12512
12524
12531
12536
12545
12552
12557
12568
12576
12588
12601
12611
12616
12623
12635
12649
12659
12665
12678
12685
12694
12704
12716
12734
12749
12758
12768
12773
12783
12789
12796
12805
12819
12833
12843
12848
12858
12870
12877
12890
12895
12906
12914
12919
12941
12951
12957
12965
12973
12982
12997
13007
13024
13031
13046
13052
13061
13072
13086
13095
13105
13111
13125
13131
13137
13145
13159
13170
13175
13184
13196
13219
13225
13231
13245
13251
13270
13280
13289
13302
13308
13317
13323
13343
13349
13364
13372
13379
13389
13394
13400
13407
13417
13426
13437
13443
13451
13462
13470
13476
13483
13495
13507
13517
13526
13532
13545
13557
13568
13576
13586
13592
13599
13609
13619
13627
13632
13642
13663
13672
13676
13684
13709
13713
13719
13727
13744
13755
13763
13778
13785
13791
13799
13808
13816
13834
13844
13871
13878
13889
13895
13907
13914
13922
13928
13941
13945
13951
13970
13975
13985
13992
13997
14008
14013
14022
14028
14046
14054
14066
14072
14080
14092
14097
14102
14108
14127
14139
14154
14163
14175
14187
14199
14208
14218
14223
14230
14237
14246
14258
14269
14286
14301
14310
14327
14337
14344
14354
14359
14365
14379
14398
14407
14420
14430
14439
14447
14454
14460
14473
14485
14491
14504
14522
14529
14538
14545
14557
14565
14578
14594
14601
14607
14615
14620
14635
14641
14649
14664
14674
14679
14693
14702
14714
14728
14752
14758
14765
14775
14782
14790
14796
14815
14826
14831
14841
14849
14854
14865
14875
14889
14903
14909
14923
14937
14947
14952
14959
14969
14976
14987
14998
15004
15015
15024
15029
15042
15047
15057
15061
15071
15080
15096
15104
15116
15124
15136
15141
15164
15177
15189
15201
15208
15216
15221
15227
15242
15248
15254
15268
15287
15296
15302
15308
15320
15328
15337
15346
15357
15368
15377
15385
15395
15408
15415
15419
15428
15449
15455
15462
15468
15487
15498
15510
15515
15521
15531
15537
15543
15552
15557
15569
15581
15585
15591
15610
15620
15628
15645
15653
15664
15673
15677
15684
15695
15700
15711
15718
15733
15739
15744
15752
15773
15780
15791
15800
15805
15815
15821
15830
15842
15846
15853
15869
15879
15885
15889
15897
15907
15923
15929
15933
15945
15957
15967
15973
15978
15985
15998
16004
16010
16027
16043
16052
16058
16064
16070
16087
16101
16110
16116
16135
16147
16152
16166
16173
16185
16203
16211
16226
16234
16240
16247
16254
16261
16275
16292
16305
16317
16324
16331
16337
16352
16362
16370
16376
16392
16402
16410
16430
16445
16452
16464
16471
16481
16490
16497
16509
16515
16529
16538
16552
16569
16586
16592
16600
16610
16617
16625
16632
16647
16670
16686
16693
16700
16709
16717
16723
16740
16753
16762
16780
16786
16799
16814
16820
16834
16845
16851
16862
16868
16873
16883
16894
16912
16934
16941
16960
16970
16988
17007
17021
17032
17040
17049
17057
17063
17073
17082
17098
17115
17128
17143
17153
17162
17170
17184
17193
17203
17220
17227
17235
17246
17253
17261
17276
17280
17289
17303
17316
17322
17334
17348
17360
17367
17377
17386
17393
17402
17407
17414
17427
17437
17443
17454
17460
17465
17472
17486
17491
17520
17529
17536
17550
17559
17565
17580
17590
17597
17614
17622
17629
17641
17649
17655
17672
17682
17693
17701
17707
17717
17729
17739
17745
17758
17768
17783
17792
17798
17807
17815
17823
17829
17843
17853
17877
17882
17890
17900
17905
17913
17918
17936
17952
17966
17979
17999
18006
18021
18034
18040
18049
18059
18067
18078
18085
18104
18112
18117
18128
18136
18142
18152
18158
18167
18181
18193
18204
18211
18220
18231
18241
18251
18266
18278
18287
18292
18298
18309
18324
18335
18350
18358
18364
18371
18385
18395
18401
18415
18426
18432
18445
18450
18459
18466
18471
18481
18495
18514
18529
18543
18553
18563
18571
18579
18593
18599
18608
18618
18634
18647
18655
18670
18680
18691
18699
18705
18718
18730
18735
18743
18748
18755
18770
18776
18784
18807
18823
18831
18839
18846
18876
18883
18912
18923
18931
18943
18955
18966
18979
18989
18995
18999
19008
19012
19020
19038
19052
19068
19075
19085
19104
19111
19119
19129
19141
19149
19160
19174
19180
19188
19193
19200
19207
19224
19231
19241
19263
19271
19275
19281
19288
19301
19307
19313
19327
19343
19352
19358
19370
19377
19383
19392
19398
19410
19428
19437
19456
19471
19481
19491
19499
19515
19524
19533
19543
19555
19574
19581
19586
19593
19614
19622
19644
19651
19666
19675
19681
19698
19709
19725
19732
19739
19748
19757
19766
19772
19787
19808
19818
19830
19836
19842
19848
19870
19881
19886
19898
19908
19913
19926
19933
19937
19942
19959
19972
19982
19987
20002
20010
20016
20024
20036
20048
20056
20061
20074
20084
20101
20107
20117
20123
20134
20143
20159
20166
20172
20189
20199
20210
20226
20232
20245
20253
20266
20274
20293
20301
20308
20314
20321
20348
20357
20368
20378
20384
20391
20398
20417
20427
20437
20448
20457
20474
20478
20486
20492
20497
20508
20513
20527
20532
20543
20550
20556
20561
20566
20581
20595
20606
20625
20636
20647
20652
20657
20680
20690
20699
20706
20712
20717
20733
20753
20764
20777
20788
20796
20803
20808
20813
20818
20824
20835
20861
20880
20892
20904
20910
20923
20937
20944
20963
20971
20984
20991
20998
21005
21012
21023
21038
21044
21057
21072
21079
21086
21093
21109
21115
21127
21134
21149
21165
21171
21181
21188
21195
21207
21217
21223
21228
21242
21251
21265
21276
21283
21296
21307
21316
21324
21334
21339
21346
21363
21374
21380
21393
21408
21419
21434
21444
21454
21467
21474
21481
21486
21494
21502
21515
21529
21539
21557
21562
21567
21576
21586
21591
21596
21606
21617
21628
21642
21650
21655
21660
21665
21675
21681
21693
21706
21718
21730
21743
21753
21764
21773
21778
21790
21797
21804
21809
21822
21833
21840
21845
21851
21886
21900
21906
21913
21921
21941
21957
21967
21981
21987
21996
22004
22013
22023
22028
22048
22054
22068
22073
22078
22084
22092
22113
22120
22135
22147
22163
22169
22177
22186
22197
22208
22219
22226
22232
22242
22262
22267
22272
22280
22285
22306
22314
22326
22331
22349
22356
22370
22380
22390
22405
22417
22428
22452
22460
22467
22485
22493
22510
22516
22529
22551
22565
22574
22584
22593
22602
22611
22616
22628
22642
22659
22668
22674
22687
22695
22711
22721
22731
22736
22742
22746
22752
22767
22776
22801
22816
22833
22843
22855
22862
22872
22886
22913
22920
22928
22944
22969
22988
23000
23007
23014
23020
23032
23051
23057
23064
23073
23085
23099
23107
23119
23126
23134
23140
23154
23167
23176
23183
23189
23201
23207
23214
23221
23239
23250
23261
23271
23278
23287
23293
23301
23315
23323
23328
23343
23353
23360
23366
23372
23381
23393
23401
23411
23428
23441
23448
23466
23477
23483
23488
23498
23518
23531
23537
23543
23558
23569
23576
23584
23591
23603
23611
23618
23633
23640
23651
23667
23673
23687
23693
23705
23713
23729
23735
23745
23755
23764
23774
23784
23796
23822
23833
23840
23854
23866
23877
23887
23894
23905
23918
23926
23935
23948
23956
23961
23971
23980
23994
24008
24017
24024
24037
24050
24057
24071
24077
24086
24094
24099
24104
24120
24132
24142
24148
24153
24158
24164
24177
24183
24192
24209
24222
24232
24251
24257
24263
24271
24279
24287
24304
24320
24326
24347
24359
24383
24391
24402
24416
24434
24443
24451
24457
24465
24476
24483
24495
24510
24525
24530
24536
24548
24555
24564
24572
24581
24595
24616
24628
24634
24640
24649
24678
24685
24694
24704
24715
24728
24736
24747
24758
24764
24776
24781
24787
24803
24815
24822
24828
24835
24842
24856
24865
24873
24886
24899
24909
24917
24931
24940
24946
24952
24964
24971
24982
24987
25002
25006
25015
25021
25026
25038
25042
25053
25062
25078
25088
25095
25101
25108
25113
25120
25133
25143
25148
25159
25168
25174
25184
25193
25199
25215
25225
25233
25246
25253
25262
25267
25279
25284
25290
25302
25313
25321
25328
25339
25352
25362
25371
25376
25387
25396
25402
25409
25415
25426
25441
25447
25452
25475
25481
25486
25497
25504
25509
25521
25526
25536
25550
25560
25566
25575
25581
25591
25603
25608
25613
25628
25642
25655
25664
25670
25681
25688
25698
25707
25712
25718
25728
25736
25742
25759
25765
25778
25784
25792
25797
25808
25818
25823
25829
25835
25852
25859
25869
25880
25893
25908
25916
25925
25930
25941
25950
25955
25959
25973
25983
25992
26004
26013
26019
26037
26045
26051
26056
26068
26074
26085
26091
26098
26112
26118
26126
26131
26154
26161
26173
26191
26202
26210
26224
26239
26251
26271
26278
26291
26299
26305
26312
26319
26325
26341
26363
26378
26386
26395
26402
26409
26418
26426
26439
26456
26479
26484
26510
26517
26524
26533
26540
26553
26561
26578
26585
26602
26610
26619
26629
26637
26652
26661
26674
26685
26693
26705
26719
26725
26730
26737
26742
26757
26767
26775
26798
26813
26822
26835
26849
26857
26865
26874
26880
26896
26903
26910
26936
26949
26955
26964
26970
26977
26992
26998
27015
27022
27035
27047
27053
27064
27070
27084
27090
27095
27115
27126
27137
27143
27165
27172
27178
27187
27194
27204
27209
27222
27228
27244
27254
27262
27276
27290
27299
27306
27314
27321
27333
27341
27346
27361
27372
27380
27387
27396
27401
27416
27424
27432
27447
27476
27483
27489
27498
27504
27516
27529
27536
27545
27557
27566
27575
27582
27589
27606
27621
27629
27638
27648
27653
27663
27670
27677
27688
27699
27704
27716
27721
27726
27734
27743
27748
27761
27773
27780
27799
27804
27810
27826
27831
27837
27849
27855
27865
27871
27878
27883
27893
27911
27918
27924
27932
27945
27954
27959
27968
27983
27998
28018
28026
28037
28043
28055
28061
28069
28083
28097
28106
28117
28124
28140
28148
28159
28165
28172
28179
28184
28207
28223
28229
28234
28248
28257
28264
28271
28280
28293
28304
28310
28315
28326
28337
28342
28348
28362
28367
28376
28386
28393
28402
28415
28425
28434
28448
28455
28466
28473
28486
28492
28502
28516
28527
28532
28542
28548
28558
28569
28574
28580
28592
28605
28618
28630
28639
28655
28663
28672
28680
28687
28695
28707
28720
28733
28739
28760
28766
28775
28791
28804
28811
28817
28835
28843
28854
28866
28872
28880
28893
28903
28913
28930
28935
28940
28955
28972
28978
28990
29010
29020
29031
29053
29064
29070
29079
29086
29094
29102
29111
29127
29146
29156
29172
29180
29189
29197
29205
29215
29224
29235
29246
29257
29263
29273
29284
29294
29298
29308
29313
29323
29336
29343
29356
29377
29385
29392
29397
29416
29428
29434
29455
29463
29468
29488
29499
29508
29520
29525
29533
29538
29543
29567
29575
29590
29605
29611
29620
29633
29640
29652
29660
29677
29690
29699
29716
29728
29740
29747
29753
29760
29765
29776
29785
29796
29806
29825
29831
29836
29846
29865
29871
29876
29890
29904
29913
29921
29928
29934
29956
29963
29977
29989
30006
30013
30022
30032
30042
30061
30071
30080
30095
30109
30119
30129
30138
30153
30162
30168
30175
30186
30196
30206
30216
30221
30237
30245
30250
30265
30277
30288
30296
30309
30318
30325
30333
30349
30356
30363
30377
30385
30400
30409
30422
30433
30445
30454
30467
30489
30497
30508
30518
30525
30533
30537
30556
30563
30569
30575
30595
30617
30635
30644
30655
30662
30670
30676
30685
30706
30712
30731
30738
30749
30755
30762
30771
30777
30794
30812
30817
30828
30841
30847
30852
30858
30864
30874
30886
30891
30906
30927
30945
30959
30966
30978
30988
30996
31010
31018
31028
31043
31050
31058
31069
31076
31085
31101
31108
31120
31129
31142
31148
31154
31163
31170
31191
31203
31208
31223
31238
31250
31258
31264
31272
31283
31292
31301
31307
31318
31336
31344
31350
31357
31368
31375
31390
31395
31406
31416
31421
31427
31438
31443
31460
31475
31489
31498
31505
31513
31519
31531
31540
31551
31557
31570
31583
31592
31599
31604
31616
31626
31641
31649
31655
31679
31688
31696
31703
31717
31732
31741
31748
31757
31769
31779
31795
31800
31805
31810
31819
31824
31835
31843
31861
31871
31886
31893
31902
31908
31916
31921
31928
31941
31953
31965
31983
31989
31999
32004
32018
32024
32030
32045
32051
32063
32067
32079
32085
32098
32107
32113
32128
32145
32154
32160
32175
32182
32204
32219
32226
32234
32241
32248
32255
32268
32278
32286
32297
32301
32313
32319
32328
32334
32343
32358
32364
32385
32393
32410
32423
32430
32441
32450
32455
32464
32470
32481
32486
32505
32510
32526
32535
32544
32552
32571
32579
32588
32599
32605
32620
32630
32636
32647
32662
32669
32683
32689
32695
32701
32708
32719
32732
32738
32749
32756
32761
32769
32776
32785
32807
32817
32825
32844
32853
32858
32864
32872
32878
32889
32902
32913
32920
32933
32944
32950
32958
32964
32977
32986
32994
33000
33014
33031
33041
33055
33077
33088
33102
33113
33120
33129
33138
33157
33162
33168
33174
33185
33197
33207
33218
33226
33235
33241
33258
33271
33280
33288
33297
33308
33318
33324
33331
33338
33349
33357
33362
33381
33389
33403
33409
33424
33432
33444
33454
33463
33476
33486
33500
33506
33520
33526
33533
33543
33550
33555
33565
33576
33587
33595
33605
33612
33627
33641
33647
33652
33677
33693
33702
33717
33731
33745
33753
33766
33782
33796
33803
33810
33817
33832
33841
33850
33858
33870
33887
33909
33916
33922
33928
33939
33948
33969
33975
33987
33996
34007
34016
34030
34035
34042
34052
34063
34070
34088
34099
34105
34110
34127
34132
34144
34152
34161
34179
34190
34201
34207
34215
34225
34240
34245
34251
34257
34271
34289
34304
34316
34323
34335
34341
34354
34364
34369
34378
34387
34403
34413
34430
34439
34451
34459
34472
34481
34487
34497
34504
34518
34525
34535
34555
34562
34569
34573
34594
34599
34618
34638
34650
34658
34666
34685
34699
34709
34719
34730
34735
34744
34751
34760
34774
34788
34794
34801
34811
34820
34827
34843
34850
34856
34877
34889
34896
34901
34911
34920
34925
34944
34952
34958
34980
34991
34996
35006
35011
35017
35035
35043
35057
35068
35078
35088
35094
35104
35111
35118
35123
35138
35152
35178
35183
35189
35203
35208
35227
35236
35248
35257
35264
35269
35276
35294
35300
35316
35321
35338
35353
35362
35369
35378
35389
35395
35402
35410
35429
35441
35452
35463
35468
35477
35487
35495
35505
35511
35518
35533
35548
35552
35558
35563
35578
35590
35596
35603
35610
35622
35633
35642
35649
35659
35686
35694
35703
35713
35726
35749
35757
35772
35780
35797
35809
35814
35825
35835
35846
35855
35863
35889
35896
35901
35907
35913
35928
35942
35948
35956
35970
35983
35997
36005
36016
36026
36037
36045
36063
36068
36076
36094
36104
36124
36137
36145
36152
36164
36183
36194
36216
36227
36232
36240
36251
36260
36268
36272
36285
36293
36310
36324
36334
36347
36359
36369
36378
36386
36396
36405
36419
36424
36439
36455
36462
36468
36475
36486
36492
36499
36512
36518
36531
36538
36556
36571
36585
36590
36596
36604
36610
36615
36634
36642
36654
36673
36679
36687
36694
36712
36720
36733
36740
36746
36762
36776
36782
36792
36805
36816
36824
36833
36855
36863
36867
36876
36892
36899
36914
36923
36930
36941
36947
36966
36983
36991
36997
37002
37011
37026
37034
37047
37059
37075
37082
37090
37096
37111
37119
37129
37138
37155
37167
37174
37181
37187
37197
37204
37209
37215
37228
37240
37246
37251
37263
37281
37292
37299
37313
37325
37336
37348
37353
37365
37374
37387
37395
37406
37419
37433
37440
37445
37451
37465
37474
37482
37492
37508
37524
37534
37547
37566
37583
37592
37600
37608
37619
37627
37635
37641
37665
37677
37689
37701
37712
37721
37731
37736
37746
37751
37763
37771
37777
37788
37799
37805
37814
37820
37830
37842
37847
37856
37871
37884
37890
37898
37911
37923
37936
37948
37969
37979
37985
37990
38000
38007
38018
38026
38033
38048
38069
38075
38096
38103
38116
38124
38136
38149
38154
38164
38171
38179
38188
38199
38217
38222
38235
38243
38253
38270
38276
38284
38297
38310
38316
38322
38330
38336
38351
38358
38364
38378
38391
38400
38408
38419
38436
38443
38450
38460
38472
38482
38487
38497
38501
38513
38523
38532
38537
38550
38568
38584
38590
38595
38610
38619
38626
38637
38646
38655
38674
38679
38687
38700
38715
38722
38732
38740
38753
38763
38774
38782
38790
38813
38826
38837
38844
38864
38873
38885
38892
38902
38914
38920
38927
38944
38953
38963
38974
38982
38987
38999
39005
39012
39023
39030
39038
39052
39058
39071
39081
39091
39098
39107
39118
39124
39129
39135
39154
39171
39178
39187
39192
39205
39213
39224
39232
39250
39261
39271
39282
39290
39297
39304
39311
39317
39331
39351
39362
39368
39377
39397
39410
39416
39423
39435
39446
39453
39459
39464
39481
39489
39509
39518
39535
39547
39554
39561
39567
39579
39594
39603
39617
39629
39634
39646
39657
39666
39671
39682
39712
39722
39731
39739
39753
39763
39779
39787
39796
39810
39819
39827
39834
39847
39857
39865
39880
39886
39898
39908
39914
39930
39938
39948
39957
39967
39971
39976
39986
39992
40009
40022
40027
40034
40047
40052
40058
40067
40076
40090
40111
40121
40135
40147
40154
40161
40170
40176
40183
40197
40202
40213
40228
40235
40248
40255
40266
40272
40281
40298
40305
40310
40319
40334
40340
40354
40365
40372
40386
40400
40410
40416
40427
40442
40448
40456
40463
40472
40483
40490
40511
40518
40536
40540
40546
40558
40575
40583
40595
40603
40618
40625
40639
40650
40658
40665
40676
40681
40689
40695
40701
40719
40729
40735
40742
40772
40779
40786
40793
40802
40819
40835
40843
40857
40869
40876
40881
40901
40909
40922
40931
40940
40946
40957
40968
40976
40984
40991
41009
41015
41021
41029
41048
41063
41075
41084
41094
41104
41125
41135
41151
41160
41175
41188
41196
41202
41226
41234
41260
41270
41286
41293
41301
41310
41326
41332
41340
41348
41361
41378
41385
41394
41411
41419
41431
41442
41450
41457
41465
41471
41479
41492
41498
41528
41541
41550
41558
41569
41577
41584
41589
41600
41609
41630
41642
41656
41668
41677
41690
41696
41702
41716
41724
41730
41740
41749
41759
41770
41775
41780
41793
41799
41806
41820
41834
41844
41867
41873
41878
41885
41892
41902
41922
41937
41948
41954
41962
41968
41979
41984
41996
42008
42015
42024
42032
42037
42043
42055
42064
42076
42088
42097
42106
42112
42118
42123
42140
42147
42160
42172
42183
42191
42200
42208
42214
42220
42236
42252
42258
42270
42286
42300
42319
42329
42338
42348
42359
42375
42383
42390
42401
42409
42417
42426
42435
42446
42464
42470
42476
42492
42509
42519
42527
42535
42559
42566
42574
42585
42595
42603
42608
42614
42621
42632
42638
42643
42660
42673
42685
42690
42698
42704
42716
42723
42730
42739
42755
42775
42782
42789
42799
42809
42816
42821
42826
42842
42856
42862
42870
42882
42890
42896
42901
42907
42939
42956
42963
42973
42993
43002
43015
43023
43031
43037
43062
43069
43075
43086
43091
43101
43109
43117
43122
43141
43146
43151
43163
43170
43182
43198
43208
43216
43221
43233
43239
43246
43269
43281
43287
43293
43306
43311
43318
43333
43339
43345
43359
43369
43384
43405
43424
43430
43440
43451
43458
43465
43474
43484
43489
43502
43508
43524
43539
43554
43572
43584
43594
43601
43607
43626
43634
43644
43649
43655
43666
43684
43694
43699
43718
43730
43736
43742
43749
43755
43767
43775
43792
43800
43815
43820
43827
43836
43847
43854
43861
43886
43891
43903
43911
43919
43928
43941
43948
43957
43970
43976
43993
44003
44014
44021
44031
44036
44042
44060
44066
44079
44096
44107
44115
44133
44145
44156
44166
44194
44205
44222
44233
44240
44245
44259
44271
44280
44287
44295
44311
44328
44335
44355
44363
44370
44378
44387
44394
44418
44432
44439
44450
44471
44478
44486
44493
44500
44515
44522
44529
44548
44561
44569
44575
44595
44605
44611
44624
44633
44641
44655
44667
44673
44684
44696
44704
44713
44724
44730
44735
44756
44760
44769
44785
44794
44799
44818
44830
44837
44842
44852
44856
44876
44885
44894
44907
44921
44930
44955
44962
44969
44976
44987
44998
45010
45017
45025
45037
45047
45055
45068
45076
45082
45097
45110
45116
45128
45136
45146
45151
45160
45165
45181
45188
45194
45212
45218
45231
45243
45251
45264
45270
45280
45285
45290
45296
45311
45336
45350
45356
45367
45374
45380
45387
45393
45408
45413
45427
45432
45446
45451
45457
45467
45474
45487
45508
45516
45524
45540
45561
45572
45586
45592
45601
45610
45616
45630
45646
45657
45663
45671
45679
45697
45706
45711
45717
45728
45741
45747
45758
45769
45779
45790
45799
45816
45821
45830
45839
45848
45862
45874
45880
45889
45901
45909
45917
45927
45939
45944
45960
45969
45975
45989
45994
46001
46009
46021
46029
46043
46054
46068
46077
46086
46095
46102
46107
46115
46133
46143
46162
46170
46176
46184
46202
46211
46218
46225
46241
46266
46276
46285
46295
46302
46308
46315
46323
46341
46352
46357
46363
46374
46379
46392
46400
46410
46415
46424
46429
46441
46446
46456
46465
46475
46491
46498
46507
46513
46518
46524
46538
46549
46556
46566
46572
46577
46592
46602
46607
46616
46624
46630
46640
46647
46656
46680
46691
46700
46707
46717
46729
46736
46742
46751
46764
46781
46788
46799
46806
46813
46820
46827
46838
46844
46858
46863
46880
46887
46894
46902
46907
46923
46932
46945
46958
46964
46979
46986
46991
47002
47021
47027
47032
47040
47048
47069
47075
47080
47092
47105
47112
47120
47127
47134
47147
47154
47160
47179
47191
47202
47210
47215
47220
47231
47242
47248
47253
47258
47269
47276
47284
47289
47304
47320
47330
47334
47342
47353
47360
47377
47390
47404
47411
47420
47425
47432
47438
47444
47457
47469
47482
47487
47492
47503
47515
47525
47531
47541
47546
47559
47564
47571
47576
47591
47609
47617
47624
47644
47652
47660
47667
47673
47686
47697
47702
47710
47726
47739
47747
47756
47761
47778
47786
47801
47813
47825
47836
47845
47857
47869
47877
47890
47899
47916
47922
47929
47937
47946
47962
47984
47992
48000
48024
48039
48047
48058
48066
48079
48110
48117
48125
48132
48142
48148
48164
48174
48183
48203
48211
48226
48231
48237
48245
48255
48267
48282
48291
48296
48303
48311
48320
48327
48340
48353
48368
48376
48382
48389
48395
48405
48416
48426
48442
48453
48463
48468
48477
48484
48491
48497
48502
48513
48527
48537
48542
48560
48569
48578
48584
48595
48600
48610
48629
48634
48650
48657
48662
48670
48681
48689
48696
48708
48715
48728
48735
48742
48754
48761
48766
48771
48788
48799
48808
48814
48824
48829
48841
48846
48855
48864
48875
48882
48898
48905
48916
48923
48934
48942
48954
48961
48965
48975
48984
49002
49012
49021
49026
49043
49057
49069
49075
49084
49090
49099
49108
49123
49140
49154
49161
49168
49176
49183
49194
49207
49214
49224
49238
49243
49265
49272
49279
49290
49300
49306
49315
49335
49348
49353
49362
49374
49383
49391
49398
49404
49422
49433
49443
49452
49467
49477
49485
49497
49508
49513
49520
49527
49544
49549
49562
49569
49580
49586
49608
49617
49623
49634
49641
49647
49652
49663
49676
49681
49692
49700
49720
49726
49741
49749
49772
49780
49789
49798
49807
49825
49838
49851
49857
49864
49874
49880
49888
49896
49902
49913
49930
49937
49942
49955
49962
49968
49975
49980
49996
50007
50013
50024
50035
50046
50064
50075
50087
50099
50115
50124
50129
50135
50143
50156
50161
50170
50186
50201
50207
50220
50226
50236
50251
50258
50273
50282
50289
50305
50320
50334
50340
50358
50364
50379
50386
50395
50406
50418
50426
50435
50441
50447
50465
50478
50485
50507
50518
50529
50538
50546
50556
50566
50572
50577
50582
50594
50627
50633
50639
50658
50681
50693
50702
50715
50740
50749
50767
50778
50795
50804
50812
50820
50844
50850
50863
50871
50880
50897
50907
50916
50931
50943
50954
50961
50975
50985
50992
51003
51013
51021
51032
51037
51044
51057
51073
51079
51090
51108
51114
51123
51134
51140
51147
51159
51166
51176
51197
51202
51210
51225
51231
51236
51251
51258
51265
51292
51299
51306
51326
51338
51346
51356
51365
51380
51386
51394
51403
51416
51421
51426
51444
51452
51462
51469
51482
51489
51498
51506
51513
51532
51538
51555
51571
51588
51596
51603
51617
51627
51636
51647
51662
51675
51680
51689
51696
51702
51710
51727
51734
51746
51760
51776
51783
51791
51798
51811
51816
51824
51835
51845
51850
51864
51875
51881
51889
51898
51905
51910
51924
51933
51945
51959
51965
51972
51978
51986
51992
52007
52013
52025
52035
52044
52050
52058
52065
52074
52087
52095
52109
52127
52144
52154
52164
52172
52184
52189
52197
52206
52215
52234
52238
52249
52257
52274
52285
52294
52300
52308
52314
52322
52334
52349
52355
52368
52373
52380
52387
52394
52406
52416
52430
52439
52451
52460
52466
52478
52486
52495
52500
52514
52523
52534
52542
52547
52561
52573
52579
52590
52601
52606
52612
52621
52626
52635
52650
52657
52670
52687
52700
52709
52716
52728
52735
52741
52750
52758
52769
52788
52795
52818
52824
52834
52840
52855
52865
52876
52883
52902
52913
52938
52950
52957
52963
52970
52977
52983
52991
53004
53016
53027
53032
53043
53051
53060
53064
53072
53077
53088
53099
53106
53121
53126
53130
53149
53153
53161
53169
53187
53194
53206
53212
53218
53230
53236
53241
53247
53259
53266
53276
53280
53286
53306
53311
53320
53330
53340
53346
53363
53370
53374
53385
53390
53397
53405
53421
53438
53446
53452
53458
53471
53476
53483
53489
53502
53519
53531
53536
53543
53563
53569
53576
53585
53592
53608
53620
53626
53633
53644
53654
53660
53672
53677
53695
53701
53718
53727
53748
53756
53763
53771
53780
53792
53798
53809
53821
53830
53837
53849
53854
53859
53870
53879
53885
53896
53901
53908
53922
53937
53946
53958
53971
53976
53985
54005
54012
54025
54033
54040
54056
54066
54074
54082
54093
54108
54122
54139
54145
54151
54161
54172
54185
54191
54197
54211
54220
54225
54235
54247
54254
54261
54272
54278
54287
54296
54303
54326
54337
54346
54357
54365
54381
54390
54402
54409
54416
54440
54448
54454
54459
54471
54476
54492
54498
54509
54536
54543
54554
54563
54570
54581
54587
54603
54608
54613
54623
54636
54642
54660
54677
54685
54691
54697
54705
54715
54722
54733
54739
54750
54757
54763
54777
54793
54800
54811
54820
54830
54835
54850
54856
54869
54874
54881
54896
54904
54910
54919
54933
54941
54957
54975
54987
54993
55001
55007
55019
55024
55029
55042
55049
55059
55064
55083
55089
55096
55106
55110
55121
55125
55139
55147
55163
55180
55197
55206
55220
55234
55241
55249
55256
55278
55285
55294
55316
55322
55336
55342
55351
55362
55367
55374
55379
55393
55403
55419
55424
55439
55449
55466
55477
55486
55494
55500
55508
55515
55528
55533
55552
55563
55570
55575
55585
55592
55598
55604
55615
55622
55633
55639
55646
55656
55664
55671
55681
55687
55694
55712
55717
55728
55736
55749
55759
55773
55778
55790
55796
55802
55811
55823
55833
55838
55862
55867
55879
55893
55900
55908
55915
55945
55956
55962
55969
55980
55991
56001
56014
56023
56030
56037
56045
56053
56072
56083
56090
56101
56107
56115
56129
56144
56157
56164
56175
56181
56191
56198
56209
56216
56222
56229
56245
56250
56270
56285
56295
56304
56311
56323
56340
56349
56355
56360
56364
56381
56387
56398
56409
56415
56425
56436
56448
56461
56466
56471
56486
56498
56508
56517
56523
56529
56535
56550
56562
56571
56578
56590
56601
56611
56617
56632
56639
56644
56657
56665
56672
56685
56692
56700
56713
56724
56732
56744
56750
56759
56766
56774
56778
56799
56810
56822
56829
56857
56865
56874
56888
56898
56912
56921
56931
56940
56950
56958
56963
56985
56996
57006
57011
57016
57024
57034
57039
57044
57063
57078
57096
57104
57113
57125
57148
57157
57166
57172
57182
57194
57207
57214
57221
57232
57240
57256
57262
57268
57282
57291
57306
57321
57327
57339
57345
57357
57371
57383
57389
57409
57420
57426
57431
57437
57446
57454
57474
57483
57497
57508
57523
57528
57537
57548
57557
57563
57582
57590
57597
57608
57615
57626
57640
57650
57658
57668
57676
57680
57685
57705
57718
57726
57734
57738
57749
57777
57787
57796
57808
57813
57819
57828
57842
57852
57864
57875
57880
57887
57894
57900
57915
57920
57927
57939
57953
57963
57973
57979
57990
57997
58004
58017
58023
58031
58048
58055
58061
58075
58081
58087
58098
58110
58117
58124
58135
58141
58152
58160
58168
58178
58194
58199
58211
58218
58226
58237
58253
58264
58269
58275
58284
58291
58303
58310
58318
58331
58345
58352
58358
58364
58371
58385
58396
58407
58415
58423
58427
58432
58448
58458
58466
58474
58490
58496
58502
58508
58513
58525
58545
58554
58560
58572
58583
58593
58600
58613
58620
58627
58641
58646
58652
58665
58671
58685
58698
58708
58714
58720
58729
58734
58740
58750
58760
58777
58788
58793
58799
58804
58809
58814
58826
58831
58842
58854
58859
58865
58873
58885
58895
58902
58909
58919
58930
58944
58951
58957
58966
58976
58980
58990
58995
59008
59021
59027
59034
59045
59052
59065
59074
59079
59094
59103
59109
59120
59126
59133
59155
59162
59169
59185
59193
59206
59218
59234
59242
59251
59260
59267
59289
59299
59309
59320
59325
59334
59346
59357
59362
59368
59374
59383
59394
59404
59409
59417
59429
59441
59448
59457
59463
59468
59489
59499
59506
59513
59528
59532
59541
59559
59576
59583
59595
59604
59613
59618
59625
59639
59644
59655
59667
59676
59687
59695
59705
59710
59719
59729
59742
59753
59764
59781
59790
59796
59806
59822
59828
59834
59841
59852
59867
59876
59886
59899
59913
59920
59925
59934
59947
59955
59970
59981
59988
59996
60005
60012
60021
60033
60041
60055
60067
60072
60078
60086
60097
60104
60125
60132
60141
60153
60158
60168
60174
60186
60196
60211
60217
60231
60242
60251
60257
60268
60276
60283
60292
60298
60312
60338
60343
60349
60366
60374
60384
60393
60405
60417
60425
60431
60437
60454
60461
60468
60474
60490
60512
60523
60529
60543
60563
60576
60590
60602
60613
60620
60629
60638
60648
60657
60665
60675
60689
60694
60699
60704
60710
60720
60731
60741
60749
60756
60771
60776
60783
60791
60797
60812
60825
60830
60843
60852
60857
60869
60879
60889
60895
60902
60909
60921
60928
60932
60949
60954
60968
60976
60984
60991
61003
61009
61025
61030
61036
61049
61056
61064
61077
61092
61101
61109
61120
61130
61140
61148
61153
61161
61175
61180
61188
61199
61210
61219
61228
61233
61252
61258
61271
61282
61288
61294
61306
61311
61317
61331
61337
61343
61355
61361
61370
61381
61394
61400
61412
61419
61433
61442
61448
61459
61471
61476
61487
61493
61506
61514
61522
61527
61545
61552
61564
61575
61581
61590
61598
61606
61611
61625
61647
61653
61681
61688
61699
61710
61715
61722
61726
61735
61740
61753
61779
61791
61796
61802
61810
61820
61826
61835
61852
61868
61886
61897
61908
61916
61923
61938
61952
61961
61967
61978
61983
61995
62001
62006
62016
62029
62038
62048
62064
62072
62091
62097
62111
62117
62130
62138
62148
62156
62162
62169
62182
62189
62194
62209
62216
62227
62234
62251
62259
62267
62276
62285
62313
62320
62332
62339
62360
62370
62380
62394
62405
62413
62419
62424
62430
62436
62451
62464
62470
62486
62492
62501
62509
62515
62524
62537
62555
62563
62579
62595
62605
62616
62630
62637
62647
62664
62669
62677
62685
62696
62701
62715
62721
62727
62739
62748
62756
62776
62785
62792
62803
62813
62818
62830
62836
62840
62852
62859
62866
62879
62885
62891
62906
62916
62922
62933
62950
62956
62960
62966
62970
62983
62988
63001
63007
63023
63034
63049
63055
63066
63072
63086
63091
63105
63116
63124
63135
63141
63147
63160
63165
63170
63175
63192
63197
63214
63231
63245
63255
63266
63274
63284
63292
63305
63316
63321
63328
63333
63346
63352
63360
63364
63375
63393
63399
63406
63421
63431
63436
63446
63455
63466
63477
63490
63496
63501
63512
63517
63523
63529
63549
63567
63577
63584
63591
63604
63625
63635
63644
63652
63658
63670
63675
63684
63698
63707
63721
63726
63745
63752
63761
63779
63786
63801
63810
63823
63842
63850
63861
63872
63877
63891
63898
63918
63931
63946
63955
63964
63972
63983
63995
64006
64014
64020
64032
64051
64058
64063
64074
64081
64088
64098
64114
64126
64134
64143
64159
64164
64171
64180
64189
64207
64218
64237
64249
64261
64268
64287
64300
64314
64326
64333
64347
64362
64376
64387
64397
64406
64418
64427
64434
64441
64448
64461
64473
64481
64493
64503
64514
64520
64528
64534
64539
64550
64559
64574
64581
64597
64604
64616
64623
64628
64642
64650
64656
64672
64682
64695
64706
64715
64724
64731
64740
64748
64762
64766
64778
64799
64814
64843
64854
64861
64871
64877
64891
64897
64903
64910
64921
64935
64942
64952
64959
64971
64983
64990
65000
65006
65016
65032
65040
65050
65079
65085
65096
65102
65110
65115
65141
65150
65160
65166
65171
65182
65190
65198
65217
65224
65238
65249
65257
65262
65273
65282
65297
65305
65313
65318
65328
65349
65356
65361
65370
65381
65385
65390
65395
65408
65424
65435
65443
65448
65460
65471
65479
65486
65495
65508
65513
65519
65534
65539
65553
65561
65569
65575
65594
65608
65616
65623
65642
65653
65664
65676
65681
65693
65702
65712
65719
65725
65731
65736
65751
65756
65768
65778
65796
65803
65822
65848
65855
65866
65876
65884
65891
65898
65905
65923
65938
65943
65957
65967
65976
65991
66001
66008
66014
66018
66027
66032
66044
66050
66061
66074
66082
66090
66097
66103
66108
66123
66132
66145
66156
66165
66171
66180
66192
66203
66217
66226
66236
66240
66250
66256
66262
66281
66293
66306
66313
66322
66327
66333
66340
66348
66361
66372
66383
66398
66408
66416
66425
66440
66447
66457
66462
66475
66487
66494
66511
66518
66524
66532
66538
66544
66557
66569
66585
66591
66603
66612
66617
66624
66633
66641
66654
66667
66672
66683
66691
66698
66704
66710
66723
66728
66740
66749
66761
66768
66774
66780
66789
66802
66814
66819
66826
66838
66845
66855
66862
66867
66873
66884
66889
66894
66914
66922
66937
66950
66959
66965
66978
66984
66996
67006
67013
67018
67023
67028
67034
67052
67058
67073
67085
67095
67107
67120
67126
67133
67146
67153
67163
67184
67191
67199
67205
67213
67219
67232
67238
67251
67261
67272
67277
67292
67299
67305
67310
67315
67324
67337
67358
67370
67388
67394
67403
67412
67418
67429
67440
67448
67456
67485
67493
67500
67510
67515
67523
67541
67545
67551
67562
67569
67580
67585
67600
67605
67613
67618
67634
67641
67657
67672
67679
67687
67698
67707
67720
67729
67740
67754
67760
67765
67770
67776
67790
67798
67816
67822
67833
67842
67847
67852
67858
67870
67881
67892
67911
67923
67934
67941
67946
67963
67969
67975
67983
67991
68003
68021
68025
68036
68042
68048
68056
68063
68075
68080
68094
68103
68114
68122
68131
68149
68155
68163
68169
68186
68202
68211
68224
68231
68240
68249
68257
68266
68280
68298
68308
68319
68327
68337
68343
68363
68369
68375
68397
68406
68417
68423
68433
68446
68451
68458
68467
68472
68478
68492
68504
68516
68522
68531
68542
68548
68556
68567
68576
68584
68600
68612
68622
68627
68641
68649
68658
68670
68676
68681
68693
68700
68714
68720
68731
68758
68766
68778
68786
68791
68796
68807
68814
68832
68839
68844
68855
68861
68867
68873
68883
68894
68902
68908
68914
68928
68943
68952
68969
68982
68991
69010
69017
69024
69032
69038
69047
69069
69084
69104
69115
69121
69132
69137
69144
69150
69155
69161
69176
69188
69198
69209
69215
69223
69237
69242
69247
69259
69266
69281
69293
69299
69318
69338
69345
69356
69365
69371
69382
69392
69404
69412
69423
69432
69437
69444
69458
69466
69472
69483
69494
69504
69511
69518
69527
69547
69557
69561
69572
69586
69597
69602
69609
69615
69620
69628
69632
69643
69659
69674
69681
69691
69697
69701
69709
69714
69722
69733
69744
69749
69760
69768
69773
69787
69793
69800
69807
69823
69829
69849
69855
69868
69875
69882
69889
69906
69917
69925
69930
69935
69954
69962
69973
69982
69989
70003
70009
70016
70023
70033
70039
70049
70058
70071
70083
70090
70095
70100
70106
70111
70121
70131
70143
70174
70180
70188
70195
70203
70223
70235
70246
70251
70260
70267
70275
70284
70289
70301
70317
70330
70336
70347
70357
70365
70373
70396
70404
70418
70425
70438
70455
70461
70467
70477
70491
70497
70503
70509
70521
70535
70546
70556
70567
70573
70580
70589
70598
70611
70616
70625
70636
70650
70660
70666
70671
70679
70692
70697
70702
70715
70730
70739
70748
70756
70762
70772
70779
70786
70798
70808
70820
70826
70830
70841
70852
70866
70873
70885
70891
70913
70920
70925
70934
70939
70954
70968
70977
70984
70997
71009
71016
71029
71038
71049
71058
71063
71070
71080
71095
71100
71111
71123
71132
71141
71147
71155
71168
71172
71181
71199
71212
71218
71224
71233
71242
71254
71267
71280
71289
71295
71306
71312
71320
71331
71358
71365
71374
71382
71391
71405
71420
71435
71449
71457
71463
71470
71486
71495
71501
71509
71519
71540
71546
71558
71573
71579
71585
71590
71598
71604
71615
71622
71634
71654
71660
71665
71689
71703
71717
71726
71741
71751
71763
71770
71777
71793
71802
71812
71820
71826
71830
71843
71858
71865
71873
71882
71893
71903
71907
71914
71927
71945
71966
71975
71984
72005
72016
72024
72042
72054
72060
72066
72076
72084
72089
72100
72116
72121
72126
72133
72141
72155
72178
72184
72193
72207
72215
72222
72233
72248
72258
72272
72284
72299
72306
72315
72326
72332
72338
72343
72351
72362
72374
72379
72393
72400
72408
72413
72422
72428
72443
72454
72461
72477
72492
72508
72517
72525
72532
72546
72553
72559
72567
72581
72594
72600
72606
72613
72638
72659
72670
72681
72688
72702
72714
72720
72726
72732
72743
72754
72763
72774
72781
72787
72795
72804
72814
72824
72835
72846
72851
72881
72888
72900
72907
72912
72917
72923
72934
72941
72956
72961
72975
72980
72985
72990
73003
73016
73025
73031
73037
73057
73064
73073
73079
73091
73102
73121
73128
73140
73146
73151
73157
73167
73190
73198
73212
73227
73236
73250
73272
73278
73285
73291
73306
73320
73329
73338
73349
73355
73365
73371
73382
73390
73397
73402
73414
73421
73426
73448
73467
73478
73496
73504
73514
73523
73533
73545
73552
73560
73573
73590
73601
73606
73618
73639
73647
73655
73659
73666
73673
73684
73689
73701
73713
73718
73726
73749
73760
73767
73774
73779
73787
73804
73810
73818
73831
73845
73853
73860
73866
73886
73893
73907
73921
73931
73943
73951
73965
73971
73983
73988
73995
74003
74010
74024
74036
74044
74054
74071
74088
74096
74115
74135
74151
74161
74171
74181
74190
74204
74213
74233
74242
74252
74263
74272
74281
74288
74294
74300
74311
74318
74341
74358
74366
74372
74383
74397
74403
74409
74417
74422
74433
74449
74462
74468
74475
74482
74489
74508
74527
74534
74546
74556
74567
74572
74578
74588
74595
74602
74607
74640
74655
74667
74685
74694
74708
74714
74724
74735
74749
74758
74764
74771
74778
74784
74790
74802
74824
74845
74852
74874
74886
74897
74905
74914
74943
74957
74963
74970
74976
74983
74997
75007
75013
75024
75032
75037
75053
75062
75076
75090
75099
75105
75111
75126
75133
75142
75150
75161
75182
75191
75211
75220
75231
75236
75244
75249
75254
75270
75280
75291
75317
75328
75333
75338
75348
75357
75361
75372
75378
75395
75406
75417
75424
75436
75443
75449
75464
75475
75484
75489
75500
75510
75526
75531
75539
75552
75564
75578
75588
75594
75602
75611
75621
75627
75642
75656
75675
75682
75688
75699
75710
75717
75726
75733
75747
75756
75762
75770
75782
75798
75814
75831
75839
75850
75862
75870
75886
75922
75933
75942
75954
75962
75968
75973
75980
75985
76005
76016
76022
76037
76043
76049
76053
76060
76074
76090
76098
76106
76123
76132
76140
76150
76164
76172
76183
76188
76194
76206
76213
76221
76230
76242
76249
76264
76270
76283
76306
76313
76320
76336
76342
76360
76383
76396
76409
76422
76430
76440
76459
76475
76484
76490
76499
76510
76522
76529
76535
76541
76552
76563
76572
76585
76595
76600
76605
76612
76619
76625
76644
76651
76663
76675
76683
76699
76706
76718
76732
76740
76748
76753
76761
76768
76786
76794
76805
76817
76832
76839
76846
76854
76863
76874
76879
76888
76906
76938
76943
76952
76958
76969
76981
76990
77000
77008
77013
77018
77029
77038
77048
77060
77070
77085
77091
77110
77117
77125
77130
77139
77150
77160
77165
77176
77187
77195
77210
77215
77221
77226
77231
77239
77251
77265
77270
77294
77301
77309
77324
77329
77338
77347
77367
77375
77387
77392
77404
77410
77416
77422
77432
77443
77454
77459
77465
77475
77483
77498
77503
77509
77522
77527
77532
77547
77558
77569
77579
77585
77597
77604
77616
77632
77643
77650
77661
77674
77687
77693
77701
77707
77712
77721
77726
77739
77761
77772
77783
77787
77792
77800
77809
77816
77820
77835
77857
77876
77894
77902
77913
77921
77931
77937
77949
77955
77963
77974
77985
77999
78005
78010
78028
78037
78050
78056
78070
78077
78092
78101
78112
78123
78139
78145
78157
78164
78169
78181
78187
78193
78200
78215
78224
78236
78242
78247
78259
78265
78280
78293
78299
78306
78323
78329
78338
78350
78356
78361
78372
78377
78383
78399
78409
78414
78421
78427
78437
78458
78462
78467
78480
78493
78499
78506
78514
78522
78547
78556
78561
78581
78595
78606
78624
78634
78648
78659
78665
78672
78677
78692
78702
78708
78717
78729
78737
78746
78752
78759
78774
78788
78795
78803
78816
78824
78832
78839
78853
78868
78878
78889
78896
78901
78909
78920
78929
78939
78953
78963
78967
78986
78998
79005
79010
79020
79033
79044
79052
79062
79070
79086
79091
79100
79108
79122
79142
79151
79162
79167
79177
79184
79192
79201
79216
79227
79234
79251
79260
79271
79277
79292
79302
79307
79313
79319
79334
79340
79351
79372
79386
79394
79404
79412
79423
79429
79440
79447
79458
79470
79479
79490
79494
79500
79506
79512
79517
79539
79549
79553
79565
79575
79584
79589
79597
79604
79620
79631
79635
79647
79655
79661
79682
79692
79700
79705
79710
79717
79734
79741
79747
79762
79772
79787
79800
79807
79815
79825
79840
79850
79862
79881
79889
79899
79905
79914
79922
79932
79943
79954
79959
79966
79971
79983
79987
79992
79999
80014
80027
80033
80045
80068
80074
80086
80099
80105
80111
80118
80128
80133
80146
80152
80166
80187
80198
80203
80213
80219
80228
80235
80249
80255
80265
80280
80288
80303
80312
80321
80327
80332
80340
80352
80369
80396
80403
80408
80417
80425
80433
80449
80463
80482
80493
80507
80522
80530
80538
80547
80560
80567
80574
80580
80591
80602
80615
80621
80626
80631
80640
80660
80674
80684
80692
80704
80716
80723
80731
80743
80755
80766
80773
80785
80791
80796
80804
80820
80837
80848
80859
80869
80880
80893
80898
80911
80919
80927
80936
80943
80952
80969
80981
80990
81003
81009
81017
81037
81044
81051
81057
81068
81075
81088
81098
81104
81115
81123
81131
81147
81161
81169
81176
81182
81190
81203
81213
81219
81238
81243
81253
81258
81283
81295
81302
81314
81331
81341
81347
81356
81366
81375
81381
81389
81404
81418
81431
81447
81454
81460
81467
81480
81490
81498
81509
81514
81526
81537
81544
81552
81558
81564
81576
81581
81598
81607
81623
81639
81646
81661
81669
81682
81693
81702
81710
81720
81739
81749
81757
81765
81771
81776
81781
81795
81807
81811
81827
81833
81843
81848
81857
81864
81872
81891
81901
81916
81923
81940
81950
81960
81971
81976
81981
81994
81999
82007
82013
82034
82039
82058
82068
82081
82089
82095
82103
82110
82121
82128
82139
82145
82156
82162
82179
82186
82192
82197
82214
82219
82228
82240
82251
82258
82267
82279
82301
82306
82312
82325
82330
82335
82342
82347
82361
82372
82378
82389
82394
82399
82408
82416
82423
82434
82449
82454
82476
82488
82501
82515
82522
82528
82534
82543
82553
82559
82571
82585
82605
82613
82623
82642
82652
82663
82670
82697
82708
82714
82720
82730
82739
82747
82761
82768
82779
82797
82806
82812
82826
82835
82848
82855
82861
82868
82878
82884
82891
82905
82914
82925
82932
82937
82944
82961
82966
82978
82989
82997
83006
83012
83021
83031
83036
83048
83052
83064
83086
83096
83103
83116
83121
83130
83140
83146
83150
83162
83181
83192
83198
83207
83215
83220
83228
83233
83250
83265
83279
83294
83310
83324
83333
83352
83359
83371
83380
83390
83397
83404
83415
83422
83441
83450
83469
83474
83481
83486
83494
83505
83511
83525
83531
83541
83558
83571
83577
83587
83600
83612
83621
83635
83641
83651
83657
83663
83669
83675
83687
83703
83716
83722
83732
83742
83748
83757
83762
83771
83786
83802
83812
83818
83830
83845
83852
83866
83873
83883
83890
83904
83914
83929
83939
83954
83961
83969
83983
83989
83996
84007
84018
84027
84038
84043
84061
84066
84073
84084
84090
84100
84114
84123
84128
84146
84153
84164
84175
84188
84195
84199
84204
84210
84216
84228
84234
84247
84258
84264
84269
84275
84287
84300
84309
84323
84335
84341
84361
84366
84373
84384
84396
84405
84415
84421
84426
84437
84452
84461
84466
84479
84490
84498
84511
84523
84535
84545
84550
84558
84566
84572
84588
84596
84620
84635
84646
84658
84665
84675
84684
84694
84702
84713
84724
84732
84737
84743
84748
84774
84783
84793
84802
84821
84828
84838
84850
84863
84874
84881
84889
84900
84911
84920
84931
84942
84951
84964
84975
84982
84988
84996
85003
85009
85022
85031
85046
85059
85066
85082
85093
85111
85119
85128
85136
85146
85151
85157
85169
85182
85189
85197
85206
85216
85232
85240
85245
85261
85280
85291
85301
85313
85326
85334
85350
85357
85368
85377
85389
85394
85402
85411
85417
85447
85464
85473
85483
85494
85502
85508
85524
85530
85539
85552
85574
85592
85607
85618
85623
85633
85644
85662
85672
85679
85684
85689
85700
85712
85724
85731
85740
85748
85757
85763
85768
85781
85794
85809
85821
85829
85838
85846
85857
85872
85878
85887
85892
85904
85913
85919
85940
85948
85958
85966
85973
85979
85993
86001
86015
86021
86027
86041
86051
86066
86079
86089
86099
86120
86127
86141
86153
86160
86174
86190
86196
86214
86225
86235
86246
86254
86268
86282
86294
86301
86319
86325
86331
86344
86353
86360
86369
86383
86389
86400
86406
86415
86427
86433
86444
86454
86471
86476
86481
86487
86502
86509
86530
86537
86546
86557
86567
86578
86585
86591
86602
86607
86615
86621
86635
86642
86654
86661
86668
86690
86697
86706
86715
86730
86740
86768
86777
86794
86805
86814
86823
86830
86842
86855
86867
86878
86885
86892
86899
86907
86912
86924
86935
86943
86955
86969
86976
86985
86991
87005
87019
87029
87057
87066
87079
87093
87107
87122
87130
87140
87152
87158
87176
87182
87188
87196
87208
87214
87221
87232
87245
87253
87263
87269
87289
87298
87307
87317
87329
87342
87359
87366
87372
87380
87387
87393
87400
87413
87429
87440
87445
87454
87466
87483
87492
87501
87512
87516
87521
87538
87544
87552
87568
87579
87585
87590
87598
87603
87619
87628
87639
87651
87659
87665
87671
87683
87689
87698
87713
87719
87729
87740
87746
87762
87767
87773
87783
87791
87798
87805
87817
87824
87844
87849
87866
87872
87885
87894
87921
87928
87942
87951
87958
87979
87988
87998
88009
88020
88035
88044
88057
88064
88077
88082
88093
88102
88108
88116
88130
88139
88148
88161
88171
88188
88197
88211
88217
88223
88230
88239
88265
88274
88286
88294
88321
88329
88340
88345
88358
88373
88382
88397
88403
88419
88431
88441
88447
88454
88461
88474
88482
88487
88499
88515
88521
88529
88539
88545
88552
88568
88573
88587
88591
88609
88620
88640
88646
88652
88658
88666
88691
88700
88710
88725
88737
88746
88751
88770
88777
88782
88793
88806
88818
88828
88834
88842
88849
88858
88874
88886
88897
88902
88911
88921
88937
88948
88956
88962
88970
88985
88995
89003
89008
89013
89024
89033
89039
89045
89059
89073
89082
89089
89095
89106
89110
89119
89125
89136
89150
89156
89162
89174
89179
89192
89198
89204
89218
89230
89235
89241
89246
89251
89262
89270
89279
89291
89302
89311
89332
89338
89344
89349
89355
89361
89373
89393
89400
89411
89418
89426
89434
89449
89477
89483
89492
89500
89514
89524
89530
89538
89547
89560
89565
89572
89582
89596
89607
89613
89621
89636
89654
89662
89671
89676
89684
89701
89711
89719
89732
89743
89749
89757
89767
89781
89789
89800
89809
89813
89818
89828
89835
89848
89868
89879
89893
89902
89909
89915
89921
89937
89942
89948
89964
89976
89988
89993
90003
90010
90016
90020
90028
90043
90052
90065
90076
90086
90092
90098
90110
90116
90123
90131
90136
90160
90180
90190
90200
90214
90226
90234
90241
90260
90278
90288
90295
90306
90319
90329
90336
90346
90355
90362
90376
90383
90392
90402
90412
90422
90434
90439
90446
90451
90460
90464
90475
90488
90497
90509
90514
90522
90530
90535
90548
90553
90569
90578
90593
90606
90615
90622
90634
90640
90654
90662
90675
90685
90691
90701
90706
90717
90724
90738
90744
90756
90764
90774
90783
90798
90807
90816
90825
90832
90845
90856
90882
90895
90905
90915
90929
90936
90942
90952
90970
90979
90984
91001
91008
91019
91029
91044
91059
91071
91078
91085
91098
91107
91112
91127
91136
91142
91162
91168
91178
91193
91207
91213
91221
91232
91239
91248
91253
91257
91279
91291
91299
91307
91318
91326
91333
91355
91365
91371
91380
91391
91397
91408
91427
91432
91439
91443
91457
91472
91483
91496
91503
91508
91515
91524
91531
91545
91554
91574
91586
91594
91609
91617
91624
91639
91646
91655
91661
91681
91698
91707
91714
91733
91745
91755
91761
91770
91782
91788
91793
91809
91814
91821
91835
91849
91864
91870
91877
91884
91890
91906
91913
91923
91940
91951
91957
91966
91971
91981
92008
92024
92036
92044
92061
92067
92073
92085
92093
92102
92109
92123
92133
92142
92149
92155
92168
92175
92197
92204
92210
92222
92227
92234
92239
92250
92257
92275
92286
92291
92297
92311
92316
92324
92333
92337
92348
92362
92380
92394
92402
92409
92421
92430
92442
92449
92457
92471
92477
92487
92503
92519
92526
92535
92549
92564
92571
92584
92599
92612
92622
92629
92636
92645
92650
92655
92665
92678
92701
92712
92719
92729
92742
92747
92753
92762
92770
92782
92802
92815
92828
92842
92849
92854
92868
92875
92883
92888
92897
92909
92925
92932
92943
92964
92973
92983
92991
93003
93011
93024
93034
93049
93059
93065
93072
93081
93094
93101
93114
93124
93130
93135
93147
93158
93165
93178
93188
93197
93206
93216
93221
93229
93239
93245
93251
93262
93273
93284
93292
93299
93304
93310
93319
93336
93342
93353
93368
93374
93380
93388
93395
93402
93415
93429
93438
93450
93464
93470
93485
93493
93500
93517
93526
93539
93549
93555
93562
93578
93586
93594
93607
93614
93635
93645
93661
93687
93693
93705
93713
93719
93728
93734
93743
93753
93769
93775
93790
93797
93806
93811
93833
93841
93868
93874
93882
93911
93929
93942
93955
93962
93971
93986
93995
94006
94014
94021
94040
94051
94058
94067
94072
94084
94097
94106
94125
94138
94146
94159
94168
94178
94183
94189
94205
94212
94223
94231
94246
94253
94262
94268
94281
94291
94297
94305
94310
94325
94334
94347
94354
94359
94371
94378
94387
94393
94410
94419
94435
94446
94461
94469
94477
94499
94510
94517
94539
94547
94560
94574
94581
94589
94601
94608
94614
94621
94629
94639
94653
94661
94666
94679
94693
94705
94714
94725
94741
94749
94766
94773
94780
94792
94800
94805
94815
94828
94834
94850
94860
94876
94883
94889
94897
94906
94920
94929
94947
94954
94965
94973
94980
94992
95008
95014
95022
95031
95036
95049
95055
95067
95074
95085
95090
95099
95112
95120
95128
95133
95146
95152
95162
95172
95177
95190
95195
95206
95212
95220
95232
95245
95254
95261
95266
95272
95287
95293
95298
95312
95324
95337
95343
95349
95355
95362
95368
95381
95388
95401
95412
95418
95423
95428
95443
95454
95458
95466
95473
95485
95494
95499
95512
95525
95533
95538
95547
95557
95563
95569
95575
95588
95599
95604
95611
95619
95630
95634
95640
95647
95665
95678
95685
95690
95698
95709
95720
95732
95741
95746
95756
95761
95768
95783
95795
95804
95821
95834
95842
95852
95862
95877
95888
95894
95899
95905
95914
95920
95937
95943
95954
95965
95969
95979
95988
95994
96003
96022
96027
96040
96054
96062
96072
96080
96085
96093
96098
96111
96115
96126
96138
96151
96156
96167
96172
96177
96182
96189
96194
96207
96221
96228
96243
96252
96259
96277
96286
96296
96309
96318
96324
96341
96355
96365
96371
96382
96389
96396
96401
96408
96417
96450
96464
96473
96484
96496
96503
96513
96520
96530
96536
96547
96561
96566
96582
96595
96610
96615
96633
96653
96664
96671
96681
96691
96707
96718
96728
96735
96747
96752
96759
96772
96777
96788
96793
96798
96806
96820
96827
96834
96847
96859
96877
96886
96893
96904
96912
96921
96926
96949
96958
96971
96976
96984
96998
97007
97014
97023
97039
97049
97063
97074
97079
97088
97094
97101
97119
97125
97139
97144
97156
97161
97167
97176
97182
97193
97199
97214
97231
97241
97246
97252
97257
97286
97294
97305
97316
97323
97330
97348
97354
97364
97370
97378
97394
97406
97415
97429
97440
97445
97451
97459
97466
97481
97487
97505
97521
97532
97542
97553
97562
97572
97579
97584
97592
97600
97606
97618
97629
97645
97659
97672
97680
97687
97692
97699
97710
97720
97728
97732
97746
97755
97761
97770
97776
97790
97803
97814
97824
97842
97853
97859
97865
97871
97880
97890
97908
97920
97926
97941
97953
97962
97976
97983
97990
98015
98027
98038
98043
98051
98060
98070
98076
98080
98094
98111
98125
98144
98156
98164
98172
98181
98198
98211
98223
98231
98245
98254
98264
98270
98279
98291
98296
98310
98321
98327
98336
98341
98362
98370
98385
98392
98401
98422
98432
98443
98455
98461
98469
98479
98485
98492
98502
98524
98533
98551
98557
98569
98577
98584
98590
98600
98612
98618
98636
98645
98655
98669
98674
98692
98700
98705
98721
98735
98742
98750
98756
98782
98791
98800
98810
98823
98828
98836
98848
98861
98870
98881
98888
98901
98912
98924
98929
98939
98963
98971
98980
98989
98995
99021
99035
99046
99059
99067
99077
99083
99092
99100
99105
99133
99157
99170
99180
99190
99210
99219
99226
99235
99245
99260
99266
99272
99277
99290
99320
99327
99343
99349
99368
99375
99389
99396
99403
99419
99426
99437
99446
99455
99462
99473
99485
99493
99500
99507
99519
99524
99531
99537
99549
99565
99572
99580
99588
99603
99612
99620
99626
99638
99654
99661
99668
99674
99685
99698
99707
99722
99731
99736
99745
99751
99757
99767
99778
99790
99797
99809
99819
99828
99834
99845
99849
99855
99869
99883
99887
99894
99899
99908
99919
99925
99933
99953
99968
99974
99989
99995
100001
100010
100016
100028
100038
100043
100055
100062
100067
100075
100080
100087
100100
100112
100116
100130
100137
100146
100151
100160
100168
100184
100194
100199
100213
100219
100229
100234
100243
100255
100261
100269
100279
100300
100312
100319
100325
100334
100346
100352
100364
100371
100377
100389
100401
100406
100416
100430
100440
100445
100456
100462
100485
100493
100499
100507
100520
100528
100537
100559
100566
100580
100586
100592
100599
100610
100617
100622
100640
100646
100657
100667
100675
100683
100694
100700
100706
100721
100732
100738
100746
100760
100765
100771
100783
100787
100797
100804
100813
100841
100857
100867
100872
100877
100887
100902
100909
100920
100937
100949
100955
100961
100976
100984
100990
101003
101013
101024
101031
101045
101050
101057
101070
101075
101083
101095
101110
101121
101132
101144
101150
101157
101164
101173
101181
101190
101203
101215
101227
101231
101237
101249
101258
101263
101275
101286
101291
101300
101305
101328
101333
101340
101346
101359
101375
101398
101405
101416
101426
101431
101437
101445
101453
101467
101481
101489
101500
101507
101512
101525
101531
101545
101550
101557
101561
101574
101583
101590
101601
101608
101622
101631
101639
101650
101658
101663
101669
101683
101688
101699
101707
101714
101726
101734
101741
101755
101760
101771
101783
101791
101797
101805
101814
101821
101833
101841
101857
101870
101880
101885
101894
101903
101918
101923
101934
101941
101959
101964
101971
101976
101982
101996
102002
102014
102024
102038
102045
102051
102061
102080
102087
102094
102109
102119
102125
102133
102140
102146
102165
102177
102194
102199
102208
102230
102242
102260
102272
102278
102290
102298
102306
102312
102321
102341
102346
102358
102364
102380
102398
102407
102415
102423
102433
102440
102464
102471
102493
102505
102510
102516
102524
102535
102541
102547
102560
102565
102588
102593
102607
102613
102620
102628
102635
102648
102659
102668
102675
102686
102692
102701
102706
102711
102726
102739
102744
102754
102764
102778
102785
102795
102811
102820
102824
102832
102841
102859
102865
102871
102887
102902
102910
102922
102936
102944
102956
102968
102981
102992
103000
103007
103017
103029
103034
103040
103047
103058
103072
103087
103092
103104
103110
103116
103133
103140
103147
103156
103181
103187
103200
103208
103214
103230
103243
103252
103258
103266
103272
103294
103302
103308
103323
103335
103347
103352
103365
103379
103399
103404
103412
103418
103431
103438
103445
103454
103466
103485
103490
103496
103518
103530
103539
103544
103550
103559
103579
103585
103597
103602
103614
103629
103639
103650
103658
103668
103678
103683
103690
103698
103717
103729
103740
103745
103751
103756
103769
103777
103785
103795
103805
103835
103840
103846
103856
103871
103878
103882
103891
103918
103931
103941
103953
103967
103977
103990
103995
104001
104012
104018
104027
104033
104048
104054
104088
104098
104107
104115
104123
104134
104153
104165
104173
104196
104202
104209
104216
104221
104229
104251
104263
104276
104291
104309
104321
104326
104336
104350
104358
104376
104383
104397
104403
104411
104419
104425
104438
104445
104457
104469
104484
104496
104505
104510
104518
104524
104529
104544
104560
104570
104584
104593
104606
104615
104625
104636
104654
104660
104673
104683
104694
104699
104708
104714
104719
104745
104750
104762
104767
104786
104804
104812
104818
104826
104839
104848
104858
104874
104888
104895
104900
104912
104919
104927
104934
104941
104952
104964
104976
104982
104990
104996
105008
105013
105020
105031
105039
105057
105064
105070
105079
105093
105102
105109
105120
105127
105138
105143
105149
105164
105179
105189
105195
105200
105212
105218
105228
105249
105257
105270
105277
105290
105303
105308
105318
105330
105336
105344
105359
105366
105376
105387
105395
105407
105418
105427
105440
105453
105465
105472
105483
105488
105495
105504
105515
105533
105542
105547
105560
105566
105578
105588
105605
105615
105622
105630
105646
105657
105665
105673
105679
105691
105710
105727
105741
105748
105754
105765
105776
105788
105793
105805
105812
105822
105847
105859
105866
105887
105899
105910
105927
105939
105948
105974
105983
105995
106004
106017
106029
106038
106047
106053
106067
106076
106086
106099
106106
106124
106136
106146
106158
106165
106172
106180
106203
106213
106228
106239
106255
106265
106289
106296
106303
106310
106317
106324
106330
106350
106361
106375
106387
106403
106409
106418
106426
106433
106442
106449
106465
106481
106498
106508
106519
106527
106541
106549
106570
106581
106590
106602
106610
106616
106622
106629
106643
106649
106660
106670
106681
106687
106697
106707
106713
106719
106730
106737
106744
106765
106771
106782
106789
106796
106817
106822
106828
106834
106851
106859
106878
106887
106899
106906
106916
106923
106935
106947
106955
106962
106967
106980
106997
107004
107014
107020
107031
107037
107045
107050
107063
107077
107082
107098
107106
107117
107126
107135
107144
107154
107164
107168
107183
107190
107202
107211
107218
107227
107235
107248
107253
107267
107273
107294
107301
107309
107324
107333
107349
107356
107363
107370
107382
107405
107415
107420
107427
107438
107443
107460
107467
107472
107485
107490
107500
107504
107519
107541
107547
107556
107574
107580
107589
107596
107603
107616
107628
107639
107644
107654
107660
107671
107676
107687
107696
107701
107709
107729
107734
107741
107761
107766
107777
107785
107791
107804
107813
107825
107836
107843
107849
107855
107863
107870
107880
107890
107908
107922
107932
107940
107950
107959
107965
107974
107979
107996
108017
108032
108049
108057
108066
108080
108088
108097
108105
108115
108122
108143
108149
108159
108166
108182
108187
108193
108198
108206
108222
108232
108242
108247
108260
108266
108286
108296
108305
108311
108324
108331
108346
108359
108365
108372
108380
108390
108395
108412
108421
108433
108448
108453
108461
108475
108484
108498
108505
108512
108518
108533
108541
108549
108561
108573
108582
108595
108605
108612
108622
108640
108657
108678
108688
108695
108707
108719
108726
108734
108740
108745
108752
108773
108781
108801
108815
108823
108831
108841
108849
108855
108861
108884
108890
108900
108915
108928
108944
108955
108964
108970
108985
108996
109002
109022
109029
109039
109044
109054
109066
109074
109081
109087
109104
109111
109124
109143
109153
109161
109180
109187
109196
109205
109220
109227
109240
109263
109274
109281
109295
109303
109316
109325
109331
109341
109351
109366
109373
109388
109397
109419
109426
109432
109440
109447
109458
109466
109482
109495
109502
109516
109522
109529
109534
109544
109550
109571
109590
109599
109617
109639
109652
109661
109672
109681
109688
109700
109710
109722
109727
109734
109743
109748
109755
109760
109771
109784
109801
109816
109822
109830
109845
109854
109864
109871
109880
109894
109909
109920
109926
109933
109951
109958
109965
109976
109984
109992
110007
110016
110029
110038
110049
110055
110063
110072
110079
110095
110111
110117
110125
110144
110152
110163
110170
110182
110207
110215
110225
110234
110240
110250
110261
110270
110284
110297
110307
110317
110325
110330
110340
110351
110362
110372
110385
110394
110407
110413
110422
110428
110434
110438
110454
110472
110480
110494
110505
110511
110520
110526
110534
110541
110562
110578
110590
110601
110606
110613
110618
110623
110639
110646
110651
110666
110678
110689
110696
110705
110711
110720
110732
110737
110747
110753
110774
110780
110789
110796
110808
110819
110823
110835
110846
110855
110860
110875
110881
110889
110910
110921
110927
110935
110942
110953
110960
110976
110981
110986
110997
111014
111020
111028
111039
111048
111064
111070
111075
111084
111097
111102
111112
111125
111137
111145
111154
111170
111178
111185
111197
111203
111208
111225
111234
111249
111259
111267
111275
111285
111297
111303
111309
111316
111331
111338
111347
111353
111365
111375
111382
111393
111399
111406
111414
111420
111427
111442
111462
111468
111484
111499
111506
111513
111522
111533
111549
111555
111578
111591
111601
111608
111613
111626
111633
111640
111646
111659
111682
111691
111707
111712
111718
111726
111732
111739
111754
111770
111779
111790
111804
111811
111821
111830
111840
111844
111849
111857
111868
111880
111892
111898
111915
111933
111942
111951
111962
111968
111973
111980
111987
111998
112015
112021
112031
112042
112047
112054
112058
112066
112081
112093
112106
112114
112130
112142
112151
112158
112168
112177
112186
112192
112199
112213
112226
112232
112239
112254
112262
112269
112284
112295
112301
112306
112316
112326
112335
112345
112351
112376
112380
112385
112394
112404
112415
112424
112433
112443
112450
112466
112478
112484
112489
112496
112503
112509
112521
112535
112541
112563
112572
112578
112588
112594
112610
112623
112642
112656
112673
112681
112694
112701
112715
112727
112735
112742
112757
112763
112771
112779
112786
112802
112819
112826
112833
112847
112854
112867
112883
112889
112895
112900
112910
112920
112925
112931
112946
112962
112969
112976
112985
112991
113004
113017
113024
113029
113040
113049
113055
113066
113076
113091
113104
113111
113118
113127
113132
113146
113151
113162
113167
113180
113187
113204
113210
113219
113228
113234
113247
113253
113265
113271
113282
113295
113301
113317
113324
113335
113347
113353
113362
113372
113378
113386
113403
113417
113426
113452
113459
113466
113474
113486
113501
113517
113537
113547
113554
113561
113580
113591
113610
113619
113627
113637
113644
113653
113661
113666
113691
113702
113714
113720
113726
113736
113742
113759
113771
113777
113792
113798
113804
113813
113820
113825
113835
113846
113854
113878
113890
113895
113902
113912
113922
113926
113933
113939
113960
113966
113973
113982
113994
114021
114028
114033
114040
114056
114061
114066
114081
114089
114104
114113
114122
114129
114142
114147
114156
114168
114174
114188
114196
114205
114212
114225
114234
114240
114259
114265
114281
114288
114298
114305
114309
114317
114331
114336
114344
114364
114371
114391
114404
114410
114420
114434
114440
114447
114452
114458
114477
114492
114500
114512
114519
114527
114535
114546
114567
114575
114582
114595
114603
114610
114621
114632
114637
114648
114654
114661
114672
114680
114686
114698
114712
114729
114736
114744
114753
114760
114773
114779
114789
114794
114805
114815
114828
114841
114848
114854
114862
114867
114878
114891
114897
114902
114914
114928
114934
114944
114950
114961
114965
114978
114984
114990
115001
115007
115021
115027
115036
115043
115053
115064
115069
115080
115086
115103
115110
115115
115126
115135
115142
115162
115179
115189
115197
115204
115209
115226
115233
115241
115252
115268
115282
115296
115305
115311
115317
115323
115334
115342
115348
115366
115394
115404
115415
115423
115432
115440
115446
115464
115475
115481
115486
115498
115505
115518
115527
115533
115542
115553
115567
115578
115584
115589
115593
115603
115609
115620
115624
115635
115651
115663
115670
115675
115697
115705
115713
115724
115734
115744
115760
115773
115781
115793
115801
115807
115813
115820
115840
115846
115856
115863
115878
115886
115903
115909
115916
115924
115940
115962
115977
115985
115996
116015
116025
116033
116041
116048
116057
116065
116079
116085
116097
116118
116126
116135
116141
116150
116159
116172
116179
116190
116202
116210
116217
116224
116236
116249
116262
116268
116273
116282
116287
116292
116301
116326
116339
116354
116361
116367
116376
116394
116405
116413
116422
116427
116442
116449
116465
116470
116481
116498
116506
116517
116523
116529
116534
116549
116559
116564
116574
116582
116604
116611
116622
116629
116644
116651
116664
116674
116682
116688
116704
116719
116731
116739
116748
116760
116767
116772
116780
116785
116800
116815
116823
116829
116843
116854
116863
116871
116879
116903
116916
116925
116937
116944
116952
116977
116985
117001
117014
117024
117032
117039
117045
117052
117080
117110
117119
117137
117151
117164
117177
117189
117198
117204
117212
117222
117229
117239
117254
117269
117282
117290
117300
117307
117313
117322
117338
117345
117359
117374
117386
117393
117399
117407
117413
117423
117430
117441
117452
117464
117478
117488
117497
117502
117511
117521
117529
117549
117571
117586
117602
117615
117633
117644
117652
117664
117676
117682
117688
117701
117707
117713
117722
117729
117751
117762
117767
117772
117794
117800
117807
117812
117823
117828
117839
117843
117852
117866
117883
117888
117893
117902
117908
117920
117928
117938
117950
117961
117971
117985
117991
117997
118003
118009
118014
118020
118038
118053
118064
118072
118084
118096
118103
118110
118116
118126
118134
118141
118145
118158
118173
118178
118189
118198
118206
118211
118223
118228
118232
118251
118257
118271
118278
118285
118294
118307
118314
118322
118337
118345
118358
118364
118373
118379
118399
118413
118421
118428
118436
118449
118459
118471
118480
118488
118497
118501
118510
118514
118525
118535
118546
118553
118560
118573
118590
118595
118610
118623
118633
118643
118658
118668
118675
118680
118695
118703
118709
118724
118730
118741
118745
118752
118761
118781
118787
118796
118816
118822
118834
118842
118849
118857
118868
118876
118886
118901
118908
118929
118936
118946
118952
118974
118982
118994
119003
119009
119022
119032
119039
119048
119060
119068
119083
119092
119102
119116
119126
119133
119140
119159
119170
119182
119188
119198
119203
119221
119228
119241
119249
119260
119267
119273
119290
119296
119307
119322
119330
119340
119349
119354
119362
119369
119379
119394
119406
119411
119429
119442
119450
119456
119466
119474
119479
119490
119498
119505
119530
119535
119540
119558
119564
119572
119584
119595
119607
119629
119642
119653
119665
119673
119680
119697
119705
119716
119722
119732
119741
119754
119768
119775
119784
119794
119811
119819
119826
119835
119846
119860
119868
119874
119880
119891
119902
119913
119920
119927
119933
119939
119950
119955
119961
119973
119995
120001
120011
120019
120024
120037
120043
120050
120081
120095
120104
120120
120129
120138
120145
120153
120161
120172
120185
120191
120219
120224
120228
120241
120252
120263
120281
120301
120308
120315
120320
120332
120343
120364
120375
120381
120387
120411
120416
120427
120449
120459
120472
120481
120490
120496
120503
120507
120537
120550
120559
120573
120581
120589
120606
120622
120631
120659
120670
120682
120698
120708
120720
120726
120741
120747
120757
120762
120777
120782
120789
120809
120817
120836
120844
120856
120866
120876
120882
120894
120907
120922
120930
120950
120956
120966
120972
120980
120992
120997
121002
121008
121023
121030
121042
121060
121068
121074
121084
121091
121098
121103
121115
121122
121140
121146
121154
121166
121173
121178
121185
121201
121206
121218
121227
121234
121247
121254
121262
121267
121283
121290
121301
121308
121319
121326
121332
121352
121359
121367
121375
121389
121395
121410
121428
121441
121446
121452
121459
121468
121473
121486
121496
121511
121528
121535
121542
121550
121558
121572
121582
121590
121603
121623
121636
121642
121652
121663
121670
121678
121693
121700
121714
121718
121728
121742
121751
121761
121770
121791
121797
121807
121828
121834
121851
121860
121875
121891
121902
121908
121924
121935
121944
121950
121967
121978
121986
121999
122007
122016
122032
122037
122047
122056
122071
122085
122094
122104
122115
122122
122133
122139
122145
122154
122175
122186
122195
122206
122212
122219
122236
122241
122249
122258
122274
122281
122295
122302
122325
122337
122345
122356
122362
122373
122378
122384
122390
122395
122406
122413
122427
122435
122450
122461
122469
122478
122487
122497
122510
122517
122528
122533
122544
122557
122569
122581
122591
122598
122606
122621
122627
122637
122644
122653
122666
122671
122676
122685
122696
122704
122719
122729
122742
122748
122755
122761
122768
122779
122789
122796
122801
122820
122825
122840
122846
122862
122874
122885
122894
122903
122914
122923
122932
122940
122953
122958
122976
122983
122995
123003
123011
123023
123033
123045
123051
123064
123080
123087
123107
123114
123131
123142
123150
123165
123174
123182
123196
123203
123221
123227
123241
123252
123264
123269
123278
123284
123294
123301
123305
123325
123335
123343
123351
123357
123363
123373
123378
123382
123395
123408
123413
123422
123430
123435
123447
123458
123463
123469
123482
123496
123501
123510
123518
123526
123537
123545
123552
123563
123574
123581
123588
123594
123601
123614
123620
123629
123643
123662
123667
123681
123688
123697
123707
123718
123731
123736
123747
123765
123775
123789
123806
123818
123827
123835
123842
123848
123857
123863
123876
123889
123905
123913
123920
123925
123933
123940
123946
123960
123974
123990
123998
124005
124011
124020
124035
124045
124051
124074
124090
124100
124111
124118
124125
124133
124145
124154
124162
124167
124179
124190
124197
124204
124214
124226
124232
124245
124258
124271
124278
124294
124300
124310
124326
124334
124341
124349
124374
124381
124398
124417
124430
124444
124460
124474
124483
124496
124504
124512
124521
124527
